July 24, 2025   18:18:16
Differential Pulse Voltammetry
File: e:\Data Source:  Experiment
Instrument Model:  CHI620E
Header: 
Note: 

Init E (V) = 0
Final E (V) = 1
Incr E (V) = 0.004
Amplitude (V) = 0.05
Pulse Width (sec) = 0.05
Sample Width (sec) = 0.0167
Pulse Period (sec) = 0.5
Quiet Time (sec) = 2
Sensitivity (A/V) = 0.01

Results:

Channel 1:
Ep = 0.572V
ip = 1.040e-5A
Ap = 1.013e-6VA

Potential/V, Current/A

0.004, 9.500e-6
0.008, 8.911e-6
0.012, 8.711e-6
0.016, 8.346e-6
0.020, 7.946e-6
0.024, 7.558e-6
0.028, 7.275e-6
0.032, 7.028e-6
0.036, 6.851e-6
0.040, 6.486e-6
0.044, 6.345e-6
0.048, 6.074e-6
0.052, 5.874e-6
0.056, 5.851e-6
0.060, 5.721e-6
0.064, 5.662e-6
0.068, 5.309e-6
0.072, 5.262e-6
0.076, 5.227e-6
0.080, 5.168e-6
0.084, 4.838e-6
0.088, 4.626e-6
0.092, 4.768e-6
0.096, 4.579e-6
0.100, 4.473e-6
0.104, 4.309e-6
0.108, 4.320e-6
0.112, 4.309e-6
0.116, 3.967e-6
0.120, 4.085e-6
0.124, 3.967e-6
0.128, 3.779e-6
0.132, 3.673e-6
0.136, 3.696e-6
0.140, 3.732e-6
0.144, 3.543e-6
0.148, 3.602e-6
0.152, 3.214e-6
0.156, 3.308e-6
0.160, 3.308e-6
0.164, 3.237e-6
0.168, 3.084e-6
0.172, 3.226e-6
0.176, 3.190e-6
0.180, 3.155e-6
0.184, 3.014e-6
0.188, 3.120e-6
0.192, 3.072e-6
0.196, 2.884e-6
0.200, 2.778e-6
0.204, 2.743e-6
0.208, 2.861e-6
0.212, 2.813e-6
0.216, 2.719e-6
0.220, 2.660e-6
0.224, 2.719e-6
0.228, 2.449e-6
0.232, 2.578e-6
0.236, 2.519e-6
0.240, 2.625e-6
0.244, 2.354e-6
0.248, 2.519e-6
0.252, 2.390e-6
0.256, 2.484e-6
0.260, 2.460e-6
0.264, 2.531e-6
0.268, 2.319e-6
0.272, 2.401e-6
0.276, 2.213e-6
0.280, 2.307e-6
0.284, 2.343e-6
0.288, 2.366e-6
0.292, 2.260e-6
0.296, 2.296e-6
0.300, 2.225e-6
0.304, 2.213e-6
0.308, 2.178e-6
0.312, 2.084e-6
0.316, 2.154e-6
0.320, 2.107e-6
0.324, 2.131e-6
0.328, 2.178e-6
0.332, 2.084e-6
0.336, 2.154e-6
0.340, 2.013e-6
0.344, 2.084e-6
0.348, 2.142e-6
0.352, 1.954e-6
0.356, 2.095e-6
0.360, 2.060e-6
0.364, 2.060e-6
0.368, 1.966e-6
0.372, 1.989e-6
0.376, 2.001e-6
0.380, 1.931e-6
0.384, 2.037e-6
0.388, 1.978e-6
0.392, 2.166e-6
0.396, 2.001e-6
0.400, 2.001e-6
0.404, 1.919e-6
0.408, 2.013e-6
0.412, 1.931e-6
0.416, 1.931e-6
0.420, 2.001e-6
0.424, 1.931e-6
0.428, 1.989e-6
0.432, 2.025e-6
0.436, 1.966e-6
0.440, 2.072e-6
0.444, 2.025e-6
0.448, 2.166e-6
0.452, 2.048e-6
0.456, 2.284e-6
0.460, 2.248e-6
0.464, 2.390e-6
0.468, 2.507e-6
0.472, 2.672e-6
0.476, 2.908e-6
0.480, 3.002e-6
0.484, 3.178e-6
0.488, 3.402e-6
0.492, 3.826e-6
0.496, 4.050e-6
0.500, 4.344e-6
0.504, 4.838e-6
0.508, 5.239e-6
0.512, 5.792e-6
0.516, 6.427e-6
0.520, 7.098e-6
0.524, 8.005e-6
0.528, 9.088e-6
0.532, 9.971e-6
0.536, 1.082e-5
0.540, 1.201e-5
0.544, 1.290e-5
0.548, 1.383e-5
0.552, 1.493e-5
0.556, 1.573e-5
0.560, 1.615e-5
0.564, 1.660e-5
0.568, 1.666e-5
0.572, 1.669e-5
0.576, 1.669e-5
0.580, 1.634e-5
0.584, 1.615e-5
0.588, 1.583e-5
0.592, 1.539e-5
0.596, 1.528e-5
0.600, 1.489e-5
0.604, 1.440e-5
0.608, 1.419e-5
0.612, 1.377e-5
0.616, 1.361e-5
0.620, 1.334e-5
0.624, 1.304e-5
0.628, 1.276e-5
0.632, 1.236e-5
0.636, 1.213e-5
0.640, 1.185e-5
0.644, 1.175e-5
0.648, 1.150e-5
0.652, 1.137e-5
0.656, 1.132e-5
0.660, 1.118e-5
0.664, 1.105e-5
0.668, 1.102e-5
0.672, 1.082e-5
0.676, 1.071e-5
0.680, 1.076e-5
0.684, 1.070e-5
0.688, 1.065e-5
0.692, 1.064e-5
0.696, 1.045e-5
0.700, 1.041e-5
0.704, 1.035e-5
0.708, 1.037e-5
0.712, 1.021e-5
0.716, 1.027e-5
0.720, 1.016e-5
0.724, 1.016e-5
0.728, 1.015e-5
0.732, 9.994e-6
0.736, 9.947e-6
0.740, 9.900e-6
0.744, 9.629e-6
0.748, 9.582e-6
0.752, 9.724e-6
0.756, 9.347e-6
0.760, 9.418e-6
0.764, 9.300e-6
0.768, 9.135e-6
0.772, 8.958e-6
0.776, 9.217e-6
0.780, 8.958e-6
0.784, 8.841e-6
0.788, 8.805e-6
0.792, 8.582e-6
0.796, 8.570e-6
0.800, 8.488e-6
0.804, 8.452e-6
0.808, 8.311e-6
0.812, 8.193e-6
0.816, 8.076e-6
0.820, 8.229e-6
0.824, 7.934e-6
0.828, 7.970e-6
0.832, 7.911e-6
0.836, 7.817e-6
0.840, 7.675e-6
0.844, 7.664e-6
0.848, 7.511e-6
0.852, 7.499e-6
0.856, 7.334e-6
0.860, 7.228e-6
0.864, 7.475e-6
0.868, 7.381e-6
0.872, 7.299e-6
0.876, 7.310e-6
0.880, 7.369e-6
0.884, 7.428e-6
0.888, 7.322e-6
0.892, 7.381e-6
0.896, 7.416e-6
0.900, 7.275e-6
0.904, 7.346e-6
0.908, 7.252e-6
0.912, 7.322e-6
0.916, 7.310e-6
0.920, 7.475e-6
0.924, 7.463e-6
0.928, 7.534e-6
0.932, 7.511e-6
0.936, 7.475e-6
0.940, 7.711e-6
0.944, 7.687e-6
0.948, 7.699e-6
0.952, 7.605e-6
0.956, 7.817e-6
0.960, 7.734e-6
0.964, 7.652e-6
0.968, 7.817e-6
0.972, 7.781e-6
0.976, 7.793e-6
0.980, 7.793e-6
0.984, 7.746e-6
0.988, 7.864e-6
0.992, 7.864e-6
0.996, 7.758e-6
1.000, 7.805e-6
