July 24, 2025   18:26:54
Differential Pulse Voltammetry
File: e:\Data Source:  Experiment
Instrument Model:  CHI620E
Header: 
Note: 

Init E (V) = 0
Final E (V) = 1
Incr E (V) = 0.004
Amplitude (V) = 0.05
Pulse Width (sec) = 0.05
Sample Width (sec) = 0.0167
Pulse Period (sec) = 0.5
Quiet Time (sec) = 2
Sensitivity (A/V) = 0.01

Results:

Channel 1:
Ep = 0.644V
ip = 7.182e-6A
Ap = 4.285e-7VA

Potential/V, Current/A

0.004, 8.028e-6
0.008, 7.369e-6
0.012, 6.910e-6
0.016, 6.404e-6
0.020, 5.992e-6
0.024, 5.486e-6
0.028, 5.191e-6
0.032, 4.921e-6
0.036, 4.768e-6
0.040, 4.509e-6
0.044, 4.179e-6
0.048, 4.050e-6
0.052, 3.814e-6
0.056, 3.555e-6
0.060, 3.390e-6
0.064, 3.437e-6
0.068, 3.202e-6
0.072, 2.908e-6
0.076, 3.002e-6
0.080, 2.849e-6
0.084, 2.649e-6
0.088, 2.578e-6
0.092, 2.366e-6
0.096, 2.390e-6
0.100, 2.166e-6
0.104, 2.037e-6
0.108, 2.107e-6
0.112, 1.978e-6
0.116, 1.989e-6
0.120, 1.754e-6
0.124, 1.789e-6
0.128, 1.813e-6
0.132, 1.625e-6
0.136, 1.554e-6
0.140, 1.577e-6
0.144, 1.495e-6
0.148, 1.236e-6
0.152, 1.295e-6
0.156, 1.401e-6
0.160, 1.366e-6
0.164, 1.307e-6
0.168, 1.283e-6
0.172, 1.260e-6
0.176, 1.213e-6
0.180, 1.213e-6
0.184, 1.001e-6
0.188, 1.260e-6
0.192, 1.201e-6
0.196, 9.888e-7
0.200, 1.224e-6
0.204, 1.083e-6
0.208, 1.154e-6
0.212, 1.048e-6
0.216, 1.001e-6
0.220, 9.064e-7
0.224, 9.771e-7
0.228, 1.024e-6
0.232, 9.535e-7
0.236, 7.887e-7
0.240, 9.653e-7
0.244, 1.012e-6
0.248, 8.476e-7
0.252, 8.829e-7
0.256, 9.182e-7
0.260, 8.594e-7
0.264, 8.476e-7
0.268, 8.476e-7
0.272, 1.048e-6
0.276, 9.064e-7
0.280, 8.240e-7
0.284, 8.123e-7
0.288, 9.888e-7
0.292, 8.358e-7
0.296, 8.005e-7
0.300, 8.123e-7
0.304, 8.947e-7
0.308, 8.593e-7
0.312, 7.534e-7
0.316, 8.829e-7
0.320, 8.829e-7
0.324, 7.887e-7
0.328, 8.005e-7
0.332, 8.476e-7
0.336, 7.652e-7
0.340, 6.357e-7
0.344, 6.828e-7
0.348, 8.829e-7
0.352, 8.594e-7
0.356, 6.475e-7
0.360, 7.416e-7
0.364, 9.182e-7
0.368, 8.829e-7
0.372, 9.535e-7
0.376, 7.181e-7
0.380, 8.358e-7
0.384, 7.299e-7
0.388, 7.181e-7
0.392, 8.005e-7
0.396, 9.300e-7
0.400, 8.711e-7
0.404, 7.652e-7
0.408, 8.123e-7
0.412, 8.829e-7
0.416, 7.063e-7
0.420, 6.475e-7
0.424, 7.887e-7
0.428, 8.358e-7
0.432, 8.123e-7
0.436, 7.181e-7
0.440, 7.299e-7
0.444, 8.358e-7
0.448, 7.769e-7
0.452, 5.533e-7
0.456, 6.357e-7
0.460, 8.123e-7
0.464, 6.592e-7
0.468, 6.945e-7
0.472, 6.945e-7
0.476, 8.005e-7
0.480, 7.534e-7
0.484, 8.005e-7
0.488, 8.947e-7
0.492, 9.653e-7
0.496, 7.063e-7
0.500, 8.711e-7
0.504, 8.476e-7
0.508, 9.653e-7
0.512, 8.829e-7
0.516, 8.829e-7
0.520, 9.064e-7
0.524, 1.189e-6
0.528, 1.201e-6
0.532, 1.107e-6
0.536, 1.295e-6
0.540, 1.318e-6
0.544, 1.495e-6
0.548, 1.413e-6
0.552, 1.695e-6
0.556, 1.672e-6
0.560, 1.872e-6
0.564, 2.260e-6
0.568, 2.354e-6
0.572, 2.908e-6
0.576, 3.414e-6
0.580, 3.708e-6
0.584, 4.532e-6
0.588, 5.439e-6
0.592, 6.380e-6
0.596, 7.522e-6
0.600, 8.758e-6
0.604, 9.582e-6
0.608, 1.047e-5
0.612, 1.094e-5
0.616, 1.168e-5
0.620, 1.214e-5
0.624, 1.251e-5
0.628, 1.293e-5
0.632, 1.366e-5
0.636, 1.451e-5
0.640, 1.490e-5
0.644, 1.501e-5
0.648, 1.468e-5
0.652, 1.391e-5
0.656, 1.310e-5
0.660, 1.247e-5
0.664, 1.191e-5
0.668, 1.174e-5
0.672, 1.152e-5
0.676, 1.127e-5
0.680, 1.103e-5
0.684, 1.103e-5
0.688, 1.088e-5
0.692, 1.088e-5
0.696, 1.085e-5
0.700, 1.092e-5
0.704, 1.079e-5
0.708, 1.084e-5
0.712, 1.077e-5
0.716, 1.075e-5
0.720, 1.085e-5
0.724, 1.081e-5
0.728, 1.069e-5
0.732, 1.081e-5
0.736, 1.081e-5
0.740, 1.076e-5
0.744, 1.074e-5
0.748, 1.063e-5
0.752, 1.064e-5
0.756, 1.061e-5
0.760, 1.061e-5
0.764, 1.051e-5
0.768, 1.043e-5
0.772, 1.024e-5
0.776, 1.021e-5
0.780, 1.024e-5
0.784, 1.041e-5
0.788, 1.015e-5
0.792, 9.947e-6
0.796, 9.900e-6
0.800, 1.002e-5
0.804, 9.759e-6
0.808, 9.912e-6
0.812, 9.629e-6
0.816, 9.524e-6
0.820, 9.547e-6
0.824, 9.312e-6
0.828, 9.229e-6
0.832, 9.241e-6
0.836, 9.041e-6
0.840, 8.958e-6
0.844, 9.053e-6
0.848, 8.994e-6
0.852, 8.841e-6
0.856, 8.676e-6
0.860, 8.688e-6
0.864, 8.829e-6
0.868, 8.652e-6
0.872, 8.629e-6
0.876, 8.617e-6
0.880, 8.594e-6
0.884, 8.641e-6
0.888, 8.488e-6
0.892, 8.546e-6
0.896, 8.605e-6
0.900, 8.346e-6
0.904, 8.464e-6
0.908, 8.452e-6
0.912, 8.605e-6
0.916, 8.488e-6
0.920, 8.629e-6
0.924, 8.735e-6
0.928, 8.641e-6
0.932, 8.841e-6
0.936, 8.735e-6
0.940, 8.817e-6
0.944, 8.900e-6
0.948, 8.876e-6
0.952, 8.747e-6
0.956, 8.947e-6
0.960, 9.017e-6
0.964, 8.994e-6
0.968, 8.923e-6
0.972, 9.123e-6
0.976, 9.159e-6
0.980, 9.170e-6
0.984, 9.229e-6
0.988, 9.206e-6
0.992, 9.300e-6
0.996, 9.076e-6
1.000, 9.112e-6
