July 22, 2025   18:02:30
Differential Pulse Voltammetry
File: e:\Data Source:  Experiment
Instrument Model:  CHI620E
Header: 
Note: 

Init E (V) = 0
Final E (V) = 1
Incr E (V) = 0.004
Amplitude (V) = 0.05
Pulse Width (sec) = 0.05
Sample Width (sec) = 0.0167
Pulse Period (sec) = 0.5
Quiet Time (sec) = 2
Sensitivity (A/V) = 0.01

Results:

Channel 1:
Ep = 0.712V
ip = 9.445e-5A
Ap = 9.167e-6VA

Potential/V, Current/A

0.004, 2.512e-5
0.008, 2.140e-5
0.012, 1.906e-5
0.016, 1.708e-5
0.020, 1.577e-5
0.024, 1.499e-5
0.028, 1.434e-5
0.032, 1.350e-5
0.036, 1.269e-5
0.040, 1.184e-5
0.044, 1.118e-5
0.048, 1.063e-5
0.052, 1.017e-5
0.056, 9.735e-6
0.060, 9.323e-6
0.064, 9.100e-6
0.068, 8.853e-6
0.072, 8.652e-6
0.076, 8.417e-6
0.080, 8.276e-6
0.084, 8.087e-6
0.088, 8.123e-6
0.092, 7.934e-6
0.096, 8.076e-6
0.100, 7.875e-6
0.104, 7.817e-6
0.108, 7.828e-6
0.112, 7.828e-6
0.116, 7.628e-6
0.120, 7.546e-6
0.124, 7.487e-6
0.128, 7.275e-6
0.132, 7.193e-6
0.136, 7.169e-6
0.140, 7.240e-6
0.144, 7.063e-6
0.148, 7.040e-6
0.152, 6.910e-6
0.156, 6.840e-6
0.160, 6.969e-6
0.164, 6.698e-6
0.168, 6.616e-6
0.172, 6.722e-6
0.176, 6.639e-6
0.180, 6.569e-6
0.184, 6.463e-6
0.188, 6.427e-6
0.192, 6.333e-6
0.196, 6.263e-6
0.200, 6.216e-6
0.204, 6.239e-6
0.208, 6.051e-6
0.212, 6.074e-6
0.216, 6.027e-6
0.220, 5.898e-6
0.224, 5.921e-6
0.228, 5.839e-6
0.232, 5.780e-6
0.236, 5.651e-6
0.240, 5.815e-6
0.244, 5.533e-6
0.248, 5.498e-6
0.252, 5.521e-6
0.256, 5.462e-6
0.260, 5.297e-6
0.264, 5.286e-6
0.268, 5.333e-6
0.272, 5.227e-6
0.276, 5.144e-6
0.280, 5.109e-6
0.284, 5.156e-6
0.288, 5.109e-6
0.292, 4.932e-6
0.296, 4.932e-6
0.300, 4.956e-6
0.304, 4.815e-6
0.308, 4.721e-6
0.312, 4.650e-6
0.316, 4.638e-6
0.320, 4.744e-6
0.324, 4.520e-6
0.328, 4.485e-6
0.332, 4.532e-6
0.336, 4.391e-6
0.340, 4.473e-6
0.344, 4.356e-6
0.348, 4.238e-6
0.352, 4.297e-6
0.356, 4.391e-6
0.360, 4.226e-6
0.364, 4.356e-6
0.368, 4.261e-6
0.372, 4.203e-6
0.376, 4.191e-6
0.380, 4.226e-6
0.384, 4.108e-6
0.388, 4.073e-6
0.392, 4.132e-6
0.396, 4.061e-6
0.400, 4.014e-6
0.404, 3.967e-6
0.408, 3.944e-6
0.412, 3.885e-6
0.416, 3.967e-6
0.420, 3.944e-6
0.424, 3.897e-6
0.428, 4.038e-6
0.432, 3.826e-6
0.436, 3.885e-6
0.440, 3.849e-6
0.444, 3.755e-6
0.448, 3.838e-6
0.452, 3.555e-6
0.456, 3.732e-6
0.460, 3.685e-6
0.464, 3.696e-6
0.468, 3.708e-6
0.472, 3.696e-6
0.476, 3.708e-6
0.480, 3.602e-6
0.484, 3.555e-6
0.488, 3.543e-6
0.492, 3.661e-6
0.496, 3.520e-6
0.500, 3.520e-6
0.504, 3.461e-6
0.508, 3.649e-6
0.512, 3.496e-6
0.516, 3.426e-6
0.520, 3.508e-6
0.524, 3.473e-6
0.528, 3.437e-6
0.532, 3.485e-6
0.536, 3.449e-6
0.540, 3.402e-6
0.544, 3.496e-6
0.548, 3.508e-6
0.552, 3.449e-6
0.556, 3.732e-6
0.560, 3.543e-6
0.564, 3.696e-6
0.568, 3.638e-6
0.572, 3.991e-6
0.576, 3.967e-6
0.580, 3.955e-6
0.584, 4.332e-6
0.588, 4.520e-6
0.592, 4.768e-6
0.596, 4.991e-6
0.600, 5.509e-6
0.604, 5.957e-6
0.608, 6.533e-6
0.612, 7.263e-6
0.616, 8.099e-6
0.620, 9.312e-6
0.624, 1.095e-5
0.628, 1.278e-5
0.632, 1.512e-5
0.636, 1.839e-5
0.640, 2.225e-5
0.644, 2.719e-5
0.648, 3.355e-5
0.652, 4.146e-5
0.656, 5.015e-5
0.660, 6.008e-5
0.664, 7.110e-5
0.668, 8.377e-5
0.672, 9.687e-5
0.676, 1.101e-4
0.680, 1.229e-4
0.684, 1.330e-4
0.688, 1.414e-4
0.692, 1.496e-4
0.696, 1.575e-4
0.700, 1.630e-4
0.704, 1.657e-4
0.708, 1.671e-4
0.712, 1.678e-4
0.716, 1.670e-4
0.720, 1.647e-4
0.724, 1.633e-4
0.728, 1.611e-4
0.732, 1.596e-4
0.736, 1.582e-4
0.740, 1.569e-4
0.744, 1.561e-4
0.748, 1.553e-4
0.752, 1.543e-4
0.756, 1.532e-4
0.760, 1.522e-4
0.764, 1.512e-4
0.768, 1.500e-4
0.772, 1.483e-4
0.776, 1.469e-4
0.780, 1.450e-4
0.784, 1.427e-4
0.788, 1.404e-4
0.792, 1.380e-4
0.796, 1.354e-4
0.800, 1.330e-4
0.804, 1.308e-4
0.808, 1.289e-4
0.812, 1.269e-4
0.816, 1.252e-4
0.820, 1.241e-4
0.824, 1.230e-4
0.828, 1.224e-4
0.832, 1.221e-4
0.836, 1.219e-4
0.840, 1.223e-4
0.844, 1.228e-4
0.848, 1.234e-4
0.852, 1.243e-4
0.856, 1.253e-4
0.860, 1.263e-4
0.864, 1.276e-4
0.868, 1.288e-4
0.872, 1.296e-4
0.876, 1.305e-4
0.880, 1.311e-4
0.884, 1.313e-4
0.888, 1.314e-4
0.892, 1.310e-4
0.896, 1.302e-4
0.900, 1.288e-4
0.904, 1.273e-4
0.908, 1.254e-4
0.912, 1.230e-4
0.916, 1.205e-4
0.920, 1.176e-4
0.924, 1.144e-4
0.928, 1.110e-4
0.932, 1.076e-4
0.936, 1.041e-4
0.940, 1.007e-4
0.944, 9.714e-5
0.948, 9.376e-5
0.952, 9.031e-5
0.956, 8.702e-5
0.960, 8.393e-5
0.964, 8.096e-5
0.968, 7.819e-5
0.972, 7.540e-5
0.976, 7.279e-5
0.980, 7.018e-5
0.984, 6.750e-5
0.988, 6.479e-5
0.992, 6.226e-5
0.996, 5.954e-5
1.000, 5.695e-5
