July 22, 2025   17:34:40
Differential Pulse Voltammetry
File: e:\Data Source:  Experiment
Instrument Model:  CHI620E
Header: 
Note: 

Init E (V) = 0
Final E (V) = 1
Incr E (V) = 0.004
Amplitude (V) = 0.05
Pulse Width (sec) = 0.05
Sample Width (sec) = 0.0167
Pulse Period (sec) = 0.5
Quiet Time (sec) = 2
Sensitivity (A/V) = 0.01

Results:

Channel 1:
Ep = 0.212V
ip = 3.118e-6A
Ap = 5.223e-7VA

Ep = 0.676V
ip = 1.231e-4A
Ap = 1.043e-5VA

Potential/V, Current/A

0.004, 1.016e-5
0.008, 9.335e-6
0.012, 9.017e-6
0.016, 8.570e-6
0.020, 8.170e-6
0.024, 7.923e-6
0.028, 7.675e-6
0.032, 7.899e-6
0.036, 7.793e-6
0.040, 7.981e-6
0.044, 7.793e-6
0.048, 7.522e-6
0.052, 7.546e-6
0.056, 7.252e-6
0.060, 7.275e-6
0.064, 7.310e-6
0.068, 7.228e-6
0.072, 7.263e-6
0.076, 7.299e-6
0.080, 7.146e-6
0.084, 7.204e-6
0.088, 7.275e-6
0.092, 7.369e-6
0.096, 7.487e-6
0.100, 7.310e-6
0.104, 7.581e-6
0.108, 7.616e-6
0.112, 7.722e-6
0.116, 7.675e-6
0.120, 7.675e-6
0.124, 7.934e-6
0.128, 8.193e-6
0.132, 8.146e-6
0.136, 8.346e-6
0.140, 8.393e-6
0.144, 8.511e-6
0.148, 8.699e-6
0.152, 8.652e-6
0.156, 8.888e-6
0.160, 8.970e-6
0.164, 9.123e-6
0.168, 9.253e-6
0.172, 9.394e-6
0.176, 9.476e-6
0.180, 9.606e-6
0.184, 9.688e-6
0.188, 9.794e-6
0.192, 9.759e-6
0.196, 9.735e-6
0.200, 9.912e-6
0.204, 1.001e-5
0.208, 1.002e-5
0.212, 1.007e-5
0.216, 9.971e-6
0.220, 1.004e-5
0.224, 9.994e-6
0.228, 9.983e-6
0.232, 9.994e-6
0.236, 1.004e-5
0.240, 9.936e-6
0.244, 9.818e-6
0.248, 9.771e-6
0.252, 9.665e-6
0.256, 9.665e-6
0.260, 9.465e-6
0.264, 9.500e-6
0.268, 9.276e-6
0.272, 9.370e-6
0.276, 9.300e-6
0.280, 8.994e-6
0.284, 8.911e-6
0.288, 8.853e-6
0.292, 8.782e-6
0.296, 8.582e-6
0.300, 8.370e-6
0.304, 8.464e-6
0.308, 8.405e-6
0.312, 8.123e-6
0.316, 8.134e-6
0.320, 8.099e-6
0.324, 7.934e-6
0.328, 7.993e-6
0.332, 7.805e-6
0.336, 7.652e-6
0.340, 7.534e-6
0.344, 7.393e-6
0.348, 7.558e-6
0.352, 7.440e-6
0.356, 7.334e-6
0.360, 7.110e-6
0.364, 7.287e-6
0.368, 7.204e-6
0.372, 7.169e-6
0.376, 6.981e-6
0.380, 7.063e-6
0.384, 6.863e-6
0.388, 6.675e-6
0.392, 6.757e-6
0.396, 6.722e-6
0.400, 6.604e-6
0.404, 6.451e-6
0.408, 6.628e-6
0.412, 6.616e-6
0.416, 6.333e-6
0.420, 6.333e-6
0.424, 6.345e-6
0.428, 6.251e-6
0.432, 6.157e-6
0.436, 6.098e-6
0.440, 6.027e-6
0.444, 6.051e-6
0.448, 5.945e-6
0.452, 5.862e-6
0.456, 5.933e-6
0.460, 5.756e-6
0.464, 5.792e-6
0.468, 5.639e-6
0.472, 5.662e-6
0.476, 5.651e-6
0.480, 5.509e-6
0.484, 5.486e-6
0.488, 5.427e-6
0.492, 5.392e-6
0.496, 5.274e-6
0.500, 5.415e-6
0.504, 5.203e-6
0.508, 5.262e-6
0.512, 5.203e-6
0.516, 4.956e-6
0.520, 5.050e-6
0.524, 5.133e-6
0.528, 5.003e-6
0.532, 5.003e-6
0.536, 4.885e-6
0.540, 5.050e-6
0.544, 5.050e-6
0.548, 4.921e-6
0.552, 5.038e-6
0.556, 5.121e-6
0.560, 5.392e-6
0.564, 5.439e-6
0.568, 5.592e-6
0.572, 5.898e-6
0.576, 6.216e-6
0.580, 6.686e-6
0.584, 7.357e-6
0.588, 7.899e-6
0.592, 8.699e-6
0.596, 9.818e-6
0.600, 1.103e-5
0.604, 1.281e-5
0.608, 1.471e-5
0.612, 1.727e-5
0.616, 2.037e-5
0.620, 2.421e-5
0.624, 2.922e-5
0.628, 3.594e-5
0.632, 4.452e-5
0.636, 5.556e-5
0.640, 6.942e-5
0.644, 8.643e-5
0.648, 1.051e-4
0.652, 1.249e-4
0.656, 1.433e-4
0.660, 1.588e-4
0.664, 1.700e-4
0.668, 1.777e-4
0.672, 1.839e-4
0.676, 1.877e-4
0.680, 1.873e-4
0.684, 1.838e-4
0.688, 1.800e-4
0.692, 1.768e-4
0.696, 1.738e-4
0.700, 1.704e-4
0.704, 1.667e-4
0.708, 1.632e-4
0.712, 1.597e-4
0.716, 1.567e-4
0.720, 1.540e-4
0.724, 1.514e-4
0.728, 1.493e-4
0.732, 1.477e-4
0.736, 1.463e-4
0.740, 1.448e-4
0.744, 1.438e-4
0.748, 1.431e-4
0.752, 1.422e-4
0.756, 1.409e-4
0.760, 1.395e-4
0.764, 1.382e-4
0.768, 1.365e-4
0.772, 1.347e-4
0.776, 1.330e-4
0.780, 1.312e-4
0.784, 1.291e-4
0.788, 1.272e-4
0.792, 1.257e-4
0.796, 1.245e-4
0.800, 1.235e-4
0.804, 1.227e-4
0.808, 1.223e-4
0.812, 1.223e-4
0.816, 1.225e-4
0.820, 1.229e-4
0.824, 1.235e-4
0.828, 1.244e-4
0.832, 1.256e-4
0.836, 1.269e-4
0.840, 1.284e-4
0.844, 1.301e-4
0.848, 1.315e-4
0.852, 1.330e-4
0.856, 1.346e-4
0.860, 1.358e-4
0.864, 1.368e-4
0.868, 1.372e-4
0.872, 1.370e-4
0.876, 1.364e-4
0.880, 1.354e-4
0.884, 1.336e-4
0.888, 1.313e-4
0.892, 1.286e-4
0.896, 1.254e-4
0.900, 1.218e-4
0.904, 1.180e-4
0.908, 1.141e-4
0.912, 1.100e-4
0.916, 1.057e-4
0.920, 1.015e-4
0.924, 9.744e-5
0.928, 9.350e-5
0.932, 8.963e-5
0.936, 8.618e-5
0.940, 8.287e-5
0.944, 7.953e-5
0.948, 7.645e-5
0.952, 7.352e-5
0.956, 7.070e-5
0.960, 6.781e-5
0.964, 6.506e-5
0.968, 6.240e-5
0.972, 5.980e-5
0.976, 5.735e-5
0.980, 5.463e-5
0.984, 5.213e-5
0.988, 4.976e-5
0.992, 4.741e-5
0.996, 4.515e-5
1.000, 4.289e-5
