July 22, 2025   18:15:30
Differential Pulse Voltammetry
File: e:\Data Source:  Experiment
Instrument Model:  CHI620E
Header: 
Note: 

Init E (V) = 0
Final E (V) = 1
Incr E (V) = 0.004
Amplitude (V) = 0.05
Pulse Width (sec) = 0.05
Sample Width (sec) = 0.0167
Pulse Period (sec) = 0.5
Quiet Time (sec) = 2
Sensitivity (A/V) = 0.01

Results:

Channel 1:
Ep = 0.192V
ip = 2.538e-6A
Ap = 4.111e-7VA

Ep = 0.688V
ip = 1.350e-4A
Ap = 1.265e-5VA

Potential/V, Current/A

0.004, 1.688e-5
0.008, 1.522e-5
0.012, 1.417e-5
0.016, 1.348e-5
0.020, 1.306e-5
0.024, 1.244e-5
0.028, 1.194e-5
0.032, 1.169e-5
0.036, 1.129e-5
0.040, 1.134e-5
0.044, 1.128e-5
0.048, 1.142e-5
0.052, 1.131e-5
0.056, 1.137e-5
0.060, 1.122e-5
0.064, 1.132e-5
0.068, 1.125e-5
0.072, 1.117e-5
0.076, 1.104e-5
0.080, 1.108e-5
0.084, 1.094e-5
0.088, 1.109e-5
0.092, 1.107e-5
0.096, 1.105e-5
0.100, 1.110e-5
0.104, 1.118e-5
0.108, 1.109e-5
0.112, 1.122e-5
0.116, 1.128e-5
0.120, 1.130e-5
0.124, 1.156e-5
0.128, 1.145e-5
0.132, 1.151e-5
0.136, 1.152e-5
0.140, 1.169e-5
0.144, 1.183e-5
0.148, 1.188e-5
0.152, 1.190e-5
0.156, 1.218e-5
0.160, 1.215e-5
0.164, 1.203e-5
0.168, 1.225e-5
0.172, 1.235e-5
0.176, 1.231e-5
0.180, 1.224e-5
0.184, 1.227e-5
0.188, 1.242e-5
0.192, 1.257e-5
0.196, 1.242e-5
0.200, 1.235e-5
0.204, 1.236e-5
0.208, 1.248e-5
0.212, 1.245e-5
0.216, 1.234e-5
0.220, 1.237e-5
0.224, 1.234e-5
0.228, 1.213e-5
0.232, 1.213e-5
0.236, 1.213e-5
0.240, 1.204e-5
0.244, 1.191e-5
0.248, 1.194e-5
0.252, 1.180e-5
0.256, 1.170e-5
0.260, 1.147e-5
0.264, 1.128e-5
0.268, 1.128e-5
0.272, 1.120e-5
0.276, 1.111e-5
0.280, 1.084e-5
0.284, 1.070e-5
0.288, 1.064e-5
0.292, 1.050e-5
0.296, 1.038e-5
0.300, 1.034e-5
0.304, 1.008e-5
0.308, 1.009e-5
0.312, 9.865e-6
0.316, 9.700e-6
0.320, 9.653e-6
0.324, 9.406e-6
0.328, 9.300e-6
0.332, 9.335e-6
0.336, 9.300e-6
0.340, 9.088e-6
0.344, 8.841e-6
0.348, 8.864e-6
0.352, 8.947e-6
0.356, 8.853e-6
0.360, 8.711e-6
0.364, 8.558e-6
0.368, 8.570e-6
0.372, 8.652e-6
0.376, 8.323e-6
0.380, 8.276e-6
0.384, 8.205e-6
0.388, 8.158e-6
0.392, 8.005e-6
0.396, 8.028e-6
0.400, 8.146e-6
0.404, 7.923e-6
0.408, 7.817e-6
0.412, 7.758e-6
0.416, 7.664e-6
0.420, 7.581e-6
0.424, 7.569e-6
0.428, 7.546e-6
0.432, 7.405e-6
0.436, 7.357e-6
0.440, 7.240e-6
0.444, 7.228e-6
0.448, 7.193e-6
0.452, 7.040e-6
0.456, 7.004e-6
0.460, 7.122e-6
0.464, 7.075e-6
0.468, 6.816e-6
0.472, 6.804e-6
0.476, 6.816e-6
0.480, 6.734e-6
0.484, 6.698e-6
0.488, 6.581e-6
0.492, 6.639e-6
0.496, 6.628e-6
0.500, 6.439e-6
0.504, 6.322e-6
0.508, 6.533e-6
0.512, 6.416e-6
0.516, 6.227e-6
0.520, 6.345e-6
0.524, 6.239e-6
0.528, 6.239e-6
0.532, 6.192e-6
0.536, 6.251e-6
0.540, 6.180e-6
0.544, 6.274e-6
0.548, 6.274e-6
0.552, 6.274e-6
0.556, 6.427e-6
0.560, 6.439e-6
0.564, 6.369e-6
0.568, 6.745e-6
0.572, 7.075e-6
0.576, 7.240e-6
0.580, 7.487e-6
0.584, 7.852e-6
0.588, 8.452e-6
0.592, 9.017e-6
0.596, 9.983e-6
0.600, 1.067e-5
0.604, 1.184e-5
0.608, 1.341e-5
0.612, 1.484e-5
0.616, 1.693e-5
0.620, 1.940e-5
0.624, 2.243e-5
0.628, 2.626e-5
0.632, 3.123e-5
0.636, 3.751e-5
0.640, 4.557e-5
0.644, 5.519e-5
0.648, 6.691e-5
0.652, 8.101e-5
0.656, 9.702e-5
0.660, 1.150e-4
0.664, 1.343e-4
0.668, 1.539e-4
0.672, 1.716e-4
0.676, 1.854e-4
0.680, 1.948e-4
0.684, 2.003e-4
0.688, 2.004e-4
0.692, 1.972e-4
0.696, 1.929e-4
0.700, 1.893e-4
0.704, 1.856e-4
0.708, 1.823e-4
0.712, 1.794e-4
0.716, 1.763e-4
0.720, 1.737e-4
0.724, 1.709e-4
0.728, 1.682e-4
0.732, 1.661e-4
0.736, 1.641e-4
0.740, 1.626e-4
0.744, 1.613e-4
0.748, 1.601e-4
0.752, 1.589e-4
0.756, 1.578e-4
0.760, 1.565e-4
0.764, 1.555e-4
0.768, 1.541e-4
0.772, 1.524e-4
0.776, 1.510e-4
0.780, 1.491e-4
0.784, 1.470e-4
0.788, 1.446e-4
0.792, 1.422e-4
0.796, 1.398e-4
0.800, 1.375e-4
0.804, 1.351e-4
0.808, 1.330e-4
0.812, 1.310e-4
0.816, 1.294e-4
0.820, 1.278e-4
0.824, 1.265e-4
0.828, 1.256e-4
0.832, 1.249e-4
0.836, 1.247e-4
0.840, 1.249e-4
0.844, 1.252e-4
0.848, 1.257e-4
0.852, 1.265e-4
0.856, 1.275e-4
0.860, 1.289e-4
0.864, 1.300e-4
0.868, 1.313e-4
0.872, 1.327e-4
0.876, 1.339e-4
0.880, 1.352e-4
0.884, 1.361e-4
0.888, 1.368e-4
0.892, 1.372e-4
0.896, 1.374e-4
0.900, 1.370e-4
0.904, 1.364e-4
0.908, 1.351e-4
0.912, 1.334e-4
0.916, 1.311e-4
0.920, 1.287e-4
0.924, 1.258e-4
0.928, 1.227e-4
0.932, 1.193e-4
0.936, 1.157e-4
0.940, 1.120e-4
0.944, 1.081e-4
0.948, 1.041e-4
0.952, 1.001e-4
0.956, 9.626e-5
0.960, 9.252e-5
0.964, 8.888e-5
0.968, 8.538e-5
0.972, 8.222e-5
0.976, 7.910e-5
0.980, 7.627e-5
0.984, 7.341e-5
0.988, 7.081e-5
0.992, 6.811e-5
0.996, 6.533e-5
1.000, 6.265e-5
