July 22, 2025   17:39:00
Differential Pulse Voltammetry
File: e:\Data Source:  Experiment
Instrument Model:  CHI620E
Header: 
Note: 

Init E (V) = 0
Final E (V) = 1
Incr E (V) = 0.004
Amplitude (V) = 0.05
Pulse Width (sec) = 0.05
Sample Width (sec) = 0.0167
Pulse Period (sec) = 0.5
Quiet Time (sec) = 2
Sensitivity (A/V) = 0.01

Results:

Channel 1:
Ep = 0.212V
ip = 3.289e-6A
Ap = 6.312e-7VA

Ep = 0.672V
ip = 1.266e-4A
Ap = 1.079e-5VA

Potential/V, Current/A

0.004, 1.120e-5
0.008, 1.050e-5
0.012, 1.010e-5
0.016, 9.641e-6
0.020, 9.217e-6
0.024, 9.006e-6
0.028, 8.711e-6
0.032, 8.570e-6
0.036, 8.405e-6
0.040, 8.641e-6
0.044, 8.605e-6
0.048, 8.582e-6
0.052, 8.546e-6
0.056, 8.346e-6
0.060, 8.335e-6
0.064, 8.170e-6
0.068, 8.076e-6
0.072, 8.158e-6
0.076, 8.052e-6
0.080, 8.076e-6
0.084, 8.017e-6
0.088, 8.182e-6
0.092, 8.040e-6
0.096, 8.028e-6
0.100, 8.170e-6
0.104, 8.146e-6
0.108, 8.299e-6
0.112, 8.323e-6
0.116, 8.335e-6
0.120, 8.594e-6
0.124, 8.629e-6
0.128, 8.711e-6
0.132, 8.841e-6
0.136, 8.817e-6
0.140, 9.029e-6
0.144, 9.123e-6
0.148, 9.276e-6
0.152, 9.347e-6
0.156, 9.465e-6
0.160, 9.618e-6
0.164, 9.783e-6
0.168, 9.912e-6
0.172, 1.007e-5
0.176, 1.010e-5
0.180, 1.032e-5
0.184, 1.018e-5
0.188, 1.042e-5
0.192, 1.043e-5
0.196, 1.045e-5
0.200, 1.050e-5
0.204, 1.059e-5
0.208, 1.056e-5
0.212, 1.062e-5
0.216, 1.058e-5
0.220, 1.048e-5
0.224, 1.052e-5
0.228, 1.045e-5
0.232, 1.057e-5
0.236, 1.054e-5
0.240, 1.041e-5
0.244, 1.045e-5
0.248, 1.031e-5
0.252, 1.030e-5
0.256, 1.024e-5
0.260, 1.008e-5
0.264, 1.008e-5
0.268, 9.936e-6
0.272, 9.771e-6
0.276, 9.783e-6
0.280, 9.571e-6
0.284, 9.512e-6
0.288, 9.500e-6
0.292, 9.241e-6
0.296, 9.017e-6
0.300, 9.017e-6
0.304, 9.100e-6
0.308, 8.970e-6
0.312, 8.711e-6
0.316, 8.747e-6
0.320, 8.617e-6
0.324, 8.488e-6
0.328, 8.440e-6
0.332, 8.405e-6
0.336, 8.158e-6
0.340, 8.134e-6
0.344, 8.099e-6
0.348, 7.958e-6
0.352, 7.887e-6
0.356, 7.711e-6
0.360, 7.769e-6
0.364, 7.805e-6
0.368, 7.558e-6
0.372, 7.605e-6
0.376, 7.310e-6
0.380, 7.428e-6
0.384, 7.299e-6
0.388, 7.110e-6
0.392, 7.287e-6
0.396, 6.993e-6
0.400, 6.993e-6
0.404, 7.016e-6
0.408, 6.957e-6
0.412, 6.922e-6
0.416, 6.628e-6
0.420, 6.734e-6
0.424, 6.686e-6
0.428, 6.710e-6
0.432, 6.581e-6
0.436, 6.392e-6
0.440, 6.227e-6
0.444, 6.286e-6
0.448, 6.333e-6
0.452, 6.039e-6
0.456, 6.098e-6
0.460, 6.098e-6
0.464, 6.074e-6
0.468, 6.015e-6
0.472, 5.910e-6
0.476, 5.898e-6
0.480, 5.862e-6
0.484, 5.780e-6
0.488, 5.780e-6
0.492, 5.686e-6
0.496, 5.556e-6
0.500, 5.568e-6
0.504, 5.450e-6
0.508, 5.486e-6
0.512, 5.450e-6
0.516, 5.356e-6
0.520, 5.380e-6
0.524, 5.368e-6
0.528, 5.368e-6
0.532, 5.344e-6
0.536, 5.309e-6
0.540, 5.392e-6
0.544, 5.368e-6
0.548, 5.403e-6
0.552, 5.603e-6
0.556, 5.568e-6
0.560, 5.827e-6
0.564, 5.910e-6
0.568, 6.322e-6
0.572, 6.757e-6
0.576, 7.146e-6
0.580, 7.558e-6
0.584, 8.287e-6
0.588, 9.170e-6
0.592, 1.028e-5
0.596, 1.160e-5
0.600, 1.308e-5
0.604, 1.509e-5
0.608, 1.767e-5
0.612, 2.100e-5
0.616, 2.497e-5
0.620, 3.014e-5
0.624, 3.672e-5
0.628, 4.538e-5
0.632, 5.615e-5
0.636, 6.977e-5
0.640, 8.670e-5
0.644, 1.053e-4
0.648, 1.255e-4
0.652, 1.452e-4
0.656, 1.616e-4
0.660, 1.741e-4
0.664, 1.822e-4
0.668, 1.881e-4
0.672, 1.902e-4
0.676, 1.883e-4
0.680, 1.846e-4
0.684, 1.809e-4
0.688, 1.777e-4
0.692, 1.746e-4
0.696, 1.709e-4
0.700, 1.672e-4
0.704, 1.636e-4
0.708, 1.601e-4
0.712, 1.571e-4
0.716, 1.542e-4
0.720, 1.518e-4
0.724, 1.496e-4
0.728, 1.478e-4
0.732, 1.460e-4
0.736, 1.445e-4
0.740, 1.435e-4
0.744, 1.423e-4
0.748, 1.410e-4
0.752, 1.398e-4
0.756, 1.382e-4
0.760, 1.365e-4
0.764, 1.349e-4
0.768, 1.330e-4
0.772, 1.310e-4
0.776, 1.289e-4
0.780, 1.270e-4
0.784, 1.251e-4
0.788, 1.236e-4
0.792, 1.223e-4
0.796, 1.213e-4
0.800, 1.207e-4
0.804, 1.203e-4
0.808, 1.200e-4
0.812, 1.203e-4
0.816, 1.207e-4
0.820, 1.214e-4
0.824, 1.222e-4
0.828, 1.232e-4
0.832, 1.246e-4
0.836, 1.258e-4
0.840, 1.274e-4
0.844, 1.288e-4
0.848, 1.300e-4
0.852, 1.313e-4
0.856, 1.321e-4
0.860, 1.332e-4
0.864, 1.333e-4
0.868, 1.330e-4
0.872, 1.324e-4
0.876, 1.311e-4
0.880, 1.293e-4
0.884, 1.269e-4
0.888, 1.244e-4
0.892, 1.213e-4
0.896, 1.178e-4
0.900, 1.143e-4
0.904, 1.107e-4
0.908, 1.068e-4
0.912, 1.027e-4
0.916, 9.885e-5
0.920, 9.493e-5
0.924, 9.142e-5
0.928, 8.780e-5
0.932, 8.433e-5
0.936, 8.125e-5
0.940, 7.817e-5
0.944, 7.540e-5
0.948, 7.237e-5
0.952, 6.956e-5
0.956, 6.695e-5
0.960, 6.415e-5
0.964, 6.156e-5
0.968, 5.901e-5
0.972, 5.658e-5
0.976, 5.364e-5
0.980, 5.155e-5
0.984, 4.898e-5
0.988, 4.689e-5
0.992, 4.452e-5
0.996, 4.228e-5
1.000, 4.019e-5
