July 22, 2025   18:52:21
Differential Pulse Voltammetry
File: e:\Data Source:  Experiment
Instrument Model:  CHI620E
Header: 
Note: 

Init E (V) = 0
Final E (V) = 1
Incr E (V) = 0.004
Amplitude (V) = 0.05
Pulse Width (sec) = 0.05
Sample Width (sec) = 0.0167
Pulse Period (sec) = 0.5
Quiet Time (sec) = 2
Sensitivity (A/V) = 0.01

Results:

Channel 1:
Ep = 0.200V
ip = 2.397e-6A
Ap = 3.461e-7VA

Ep = 0.680V
ip = 1.293e-4A
Ap = 1.131e-5VA

Potential/V, Current/A

0.004, 1.767e-5
0.008, 1.572e-5
0.012, 1.473e-5
0.016, 1.397e-5
0.020, 1.331e-5
0.024, 1.269e-5
0.028, 1.204e-5
0.032, 1.203e-5
0.036, 1.176e-5
0.040, 1.177e-5
0.044, 1.151e-5
0.048, 1.147e-5
0.052, 1.148e-5
0.056, 1.130e-5
0.060, 1.124e-5
0.064, 1.100e-5
0.068, 1.090e-5
0.072, 1.082e-5
0.076, 1.096e-5
0.080, 1.067e-5
0.084, 1.064e-5
0.088, 1.063e-5
0.092, 1.075e-5
0.096, 1.067e-5
0.100, 1.071e-5
0.104, 1.087e-5
0.108, 1.067e-5
0.112, 1.085e-5
0.116, 1.081e-5
0.120, 1.085e-5
0.124, 1.096e-5
0.128, 1.116e-5
0.132, 1.097e-5
0.136, 1.123e-5
0.140, 1.134e-5
0.144, 1.149e-5
0.148, 1.154e-5
0.152, 1.148e-5
0.156, 1.182e-5
0.160, 1.192e-5
0.164, 1.187e-5
0.168, 1.185e-5
0.172, 1.218e-5
0.176, 1.211e-5
0.180, 1.215e-5
0.184, 1.217e-5
0.188, 1.231e-5
0.192, 1.236e-5
0.196, 1.234e-5
0.200, 1.248e-5
0.204, 1.248e-5
0.208, 1.234e-5
0.212, 1.233e-5
0.216, 1.238e-5
0.220, 1.236e-5
0.224, 1.233e-5
0.228, 1.218e-5
0.232, 1.208e-5
0.236, 1.223e-5
0.240, 1.221e-5
0.244, 1.210e-5
0.248, 1.197e-5
0.252, 1.189e-5
0.256, 1.172e-5
0.260, 1.163e-5
0.264, 1.157e-5
0.268, 1.154e-5
0.272, 1.144e-5
0.276, 1.132e-5
0.280, 1.104e-5
0.284, 1.110e-5
0.288, 1.092e-5
0.292, 1.094e-5
0.296, 1.062e-5
0.300, 1.049e-5
0.304, 1.050e-5
0.308, 1.052e-5
0.312, 1.018e-5
0.316, 1.017e-5
0.320, 1.005e-5
0.324, 9.936e-6
0.328, 9.947e-6
0.332, 9.877e-6
0.336, 9.641e-6
0.340, 9.559e-6
0.344, 9.406e-6
0.348, 9.370e-6
0.352, 9.406e-6
0.356, 9.288e-6
0.360, 9.182e-6
0.364, 9.064e-6
0.368, 9.112e-6
0.372, 9.017e-6
0.376, 8.911e-6
0.380, 8.864e-6
0.384, 8.794e-6
0.388, 8.523e-6
0.392, 8.605e-6
0.396, 8.417e-6
0.400, 8.393e-6
0.404, 8.452e-6
0.408, 8.182e-6
0.412, 8.217e-6
0.416, 8.087e-6
0.420, 7.958e-6
0.424, 7.970e-6
0.428, 7.852e-6
0.432, 7.734e-6
0.436, 7.817e-6
0.440, 7.593e-6
0.444, 7.640e-6
0.448, 7.558e-6
0.452, 7.405e-6
0.456, 7.275e-6
0.460, 7.287e-6
0.464, 7.369e-6
0.468, 7.122e-6
0.472, 7.110e-6
0.476, 7.098e-6
0.480, 6.934e-6
0.484, 7.098e-6
0.488, 6.945e-6
0.492, 6.945e-6
0.496, 6.722e-6
0.500, 6.722e-6
0.504, 6.616e-6
0.508, 6.710e-6
0.512, 6.745e-6
0.516, 6.533e-6
0.520, 6.522e-6
0.524, 6.592e-6
0.528, 6.557e-6
0.532, 6.533e-6
0.536, 6.498e-6
0.540, 6.498e-6
0.544, 6.416e-6
0.548, 6.639e-6
0.552, 6.710e-6
0.556, 6.828e-6
0.560, 6.828e-6
0.564, 6.957e-6
0.568, 7.193e-6
0.572, 7.499e-6
0.576, 7.981e-6
0.580, 8.170e-6
0.584, 8.770e-6
0.588, 9.300e-6
0.592, 1.011e-5
0.596, 1.114e-5
0.600, 1.235e-5
0.604, 1.362e-5
0.608, 1.535e-5
0.612, 1.725e-5
0.616, 2.001e-5
0.620, 2.328e-5
0.624, 2.711e-5
0.628, 3.211e-5
0.632, 3.833e-5
0.636, 4.616e-5
0.640, 5.542e-5
0.644, 6.628e-5
0.648, 7.945e-5
0.652, 9.452e-5
0.656, 1.118e-4
0.660, 1.303e-4
0.664, 1.503e-4
0.668, 1.684e-4
0.672, 1.825e-4
0.676, 1.915e-4
0.680, 1.959e-4
0.684, 1.950e-4
0.688, 1.909e-4
0.692, 1.866e-4
0.696, 1.823e-4
0.700, 1.781e-4
0.704, 1.749e-4
0.708, 1.719e-4
0.712, 1.691e-4
0.716, 1.663e-4
0.720, 1.638e-4
0.724, 1.617e-4
0.728, 1.601e-4
0.732, 1.588e-4
0.736, 1.575e-4
0.740, 1.564e-4
0.744, 1.553e-4
0.748, 1.545e-4
0.752, 1.536e-4
0.756, 1.524e-4
0.760, 1.514e-4
0.764, 1.502e-4
0.768, 1.488e-4
0.772, 1.473e-4
0.776, 1.458e-4
0.780, 1.440e-4
0.784, 1.423e-4
0.788, 1.404e-4
0.792, 1.385e-4
0.796, 1.367e-4
0.800, 1.348e-4
0.804, 1.333e-4
0.808, 1.318e-4
0.812, 1.307e-4
0.816, 1.297e-4
0.820, 1.289e-4
0.824, 1.284e-4
0.828, 1.284e-4
0.832, 1.285e-4
0.836, 1.289e-4
0.840, 1.296e-4
0.844, 1.306e-4
0.848, 1.318e-4
0.852, 1.330e-4
0.856, 1.342e-4
0.860, 1.356e-4
0.864, 1.370e-4
0.868, 1.380e-4
0.872, 1.391e-4
0.876, 1.401e-4
0.880, 1.404e-4
0.884, 1.405e-4
0.888, 1.402e-4
0.892, 1.397e-4
0.896, 1.385e-4
0.900, 1.367e-4
0.904, 1.349e-4
0.908, 1.324e-4
0.912, 1.297e-4
0.916, 1.265e-4
0.920, 1.230e-4
0.924, 1.190e-4
0.928, 1.152e-4
0.932, 1.108e-4
0.936, 1.064e-4
0.940, 1.024e-4
0.944, 9.831e-5
0.948, 9.436e-5
0.952, 9.050e-5
0.956, 8.703e-5
0.960, 8.366e-5
0.964, 8.044e-5
0.968, 7.752e-5
0.972, 7.473e-5
0.976, 7.167e-5
0.980, 6.876e-5
0.984, 6.602e-5
0.988, 6.319e-5
0.992, 6.054e-5
0.996, 5.771e-5
1.000, 5.510e-5
