July 22, 2025   18:27:52
Differential Pulse Voltammetry
File: e:\Data Source:  Experiment
Instrument Model:  CHI620E
Header: 
Note: 

Init E (V) = 0
Final E (V) = 1
Incr E (V) = 0.004
Amplitude (V) = 0.05
Pulse Width (sec) = 0.05
Sample Width (sec) = 0.0167
Pulse Period (sec) = 0.5
Quiet Time (sec) = 2
Sensitivity (A/V) = 0.01

Results:

Channel 1:
Ep = 0.192V
ip = 2.306e-6A
Ap = 4.068e-7VA

Ep = 0.688V
ip = 1.335e-4A
Ap = 1.219e-5VA

Potential/V, Current/A

0.004, 1.774e-5
0.008, 1.603e-5
0.012, 1.468e-5
0.016, 1.401e-5
0.020, 1.354e-5
0.024, 1.295e-5
0.028, 1.256e-5
0.032, 1.207e-5
0.036, 1.176e-5
0.040, 1.161e-5
0.044, 1.156e-5
0.048, 1.151e-5
0.052, 1.148e-5
0.056, 1.142e-5
0.060, 1.167e-5
0.064, 1.157e-5
0.068, 1.150e-5
0.072, 1.129e-5
0.076, 1.131e-5
0.080, 1.116e-5
0.084, 1.120e-5
0.088, 1.115e-5
0.092, 1.111e-5
0.096, 1.120e-5
0.100, 1.123e-5
0.104, 1.129e-5
0.108, 1.131e-5
0.112, 1.123e-5
0.116, 1.136e-5
0.120, 1.134e-5
0.124, 1.142e-5
0.128, 1.143e-5
0.132, 1.142e-5
0.136, 1.150e-5
0.140, 1.172e-5
0.144, 1.188e-5
0.148, 1.189e-5
0.152, 1.175e-5
0.156, 1.195e-5
0.160, 1.207e-5
0.164, 1.214e-5
0.168, 1.229e-5
0.172, 1.224e-5
0.176, 1.224e-5
0.180, 1.227e-5
0.184, 1.208e-5
0.188, 1.225e-5
0.192, 1.244e-5
0.196, 1.243e-5
0.200, 1.236e-5
0.204, 1.238e-5
0.208, 1.244e-5
0.212, 1.230e-5
0.216, 1.224e-5
0.220, 1.225e-5
0.224, 1.234e-5
0.228, 1.224e-5
0.232, 1.217e-5
0.236, 1.201e-5
0.240, 1.211e-5
0.244, 1.200e-5
0.248, 1.189e-5
0.252, 1.187e-5
0.256, 1.174e-5
0.260, 1.151e-5
0.264, 1.143e-5
0.268, 1.127e-5
0.272, 1.138e-5
0.276, 1.143e-5
0.280, 1.111e-5
0.284, 1.087e-5
0.288, 1.085e-5
0.292, 1.054e-5
0.296, 1.065e-5
0.300, 1.038e-5
0.304, 1.027e-5
0.308, 1.017e-5
0.312, 1.009e-5
0.316, 9.959e-6
0.320, 9.971e-6
0.324, 9.606e-6
0.328, 9.665e-6
0.332, 9.559e-6
0.336, 9.394e-6
0.340, 9.370e-6
0.344, 9.288e-6
0.348, 9.241e-6
0.352, 9.041e-6
0.356, 8.982e-6
0.360, 9.029e-6
0.364, 8.994e-6
0.368, 8.958e-6
0.372, 8.805e-6
0.376, 8.688e-6
0.380, 8.770e-6
0.384, 8.535e-6
0.388, 8.393e-6
0.392, 8.488e-6
0.396, 8.335e-6
0.400, 8.276e-6
0.404, 8.099e-6
0.408, 8.087e-6
0.412, 8.005e-6
0.416, 7.946e-6
0.420, 7.911e-6
0.424, 7.758e-6
0.428, 7.722e-6
0.432, 7.769e-6
0.436, 7.687e-6
0.440, 7.534e-6
0.444, 7.546e-6
0.448, 7.499e-6
0.452, 7.216e-6
0.456, 7.252e-6
0.460, 7.228e-6
0.464, 7.157e-6
0.468, 7.016e-6
0.472, 7.016e-6
0.476, 7.157e-6
0.480, 6.993e-6
0.484, 6.910e-6
0.488, 6.875e-6
0.492, 6.757e-6
0.496, 6.792e-6
0.500, 6.710e-6
0.504, 6.663e-6
0.508, 6.651e-6
0.512, 6.592e-6
0.516, 6.427e-6
0.520, 6.380e-6
0.524, 6.392e-6
0.528, 6.486e-6
0.532, 6.451e-6
0.536, 6.333e-6
0.540, 6.392e-6
0.544, 6.392e-6
0.548, 6.522e-6
0.552, 6.486e-6
0.556, 6.533e-6
0.560, 6.745e-6
0.564, 6.840e-6
0.568, 6.840e-6
0.572, 7.110e-6
0.576, 7.416e-6
0.580, 7.616e-6
0.584, 8.052e-6
0.588, 8.605e-6
0.592, 9.123e-6
0.596, 9.865e-6
0.600, 1.075e-5
0.604, 1.189e-5
0.608, 1.335e-5
0.612, 1.488e-5
0.616, 1.703e-5
0.620, 1.941e-5
0.624, 2.259e-5
0.628, 2.626e-5
0.632, 3.089e-5
0.636, 3.713e-5
0.640, 4.476e-5
0.644, 5.390e-5
0.648, 6.472e-5
0.652, 7.781e-5
0.656, 9.275e-5
0.660, 1.097e-4
0.664, 1.281e-4
0.668, 1.477e-4
0.672, 1.665e-4
0.676, 1.821e-4
0.680, 1.934e-4
0.684, 2.005e-4
0.688, 2.015e-4
0.692, 1.985e-4
0.696, 1.943e-4
0.700, 1.901e-4
0.704, 1.861e-4
0.708, 1.825e-4
0.712, 1.795e-4
0.716, 1.766e-4
0.720, 1.739e-4
0.724, 1.714e-4
0.728, 1.687e-4
0.732, 1.665e-4
0.736, 1.646e-4
0.740, 1.630e-4
0.744, 1.617e-4
0.748, 1.605e-4
0.752, 1.593e-4
0.756, 1.580e-4
0.760, 1.570e-4
0.764, 1.560e-4
0.768, 1.548e-4
0.772, 1.532e-4
0.776, 1.516e-4
0.780, 1.500e-4
0.784, 1.479e-4
0.788, 1.459e-4
0.792, 1.435e-4
0.796, 1.413e-4
0.800, 1.389e-4
0.804, 1.368e-4
0.808, 1.347e-4
0.812, 1.327e-4
0.816, 1.312e-4
0.820, 1.295e-4
0.824, 1.282e-4
0.828, 1.274e-4
0.832, 1.267e-4
0.836, 1.265e-4
0.840, 1.264e-4
0.844, 1.269e-4
0.848, 1.274e-4
0.852, 1.283e-4
0.856, 1.293e-4
0.860, 1.307e-4
0.864, 1.319e-4
0.868, 1.334e-4
0.872, 1.348e-4
0.876, 1.364e-4
0.880, 1.376e-4
0.884, 1.388e-4
0.888, 1.398e-4
0.892, 1.405e-4
0.896, 1.407e-4
0.900, 1.407e-4
0.904, 1.402e-4
0.908, 1.394e-4
0.912, 1.379e-4
0.916, 1.362e-4
0.920, 1.340e-4
0.924, 1.316e-4
0.928, 1.287e-4
0.932, 1.254e-4
0.936, 1.220e-4
0.940, 1.182e-4
0.944, 1.142e-4
0.948, 1.100e-4
0.952, 1.060e-4
0.956, 1.018e-4
0.960, 9.781e-5
0.964, 9.406e-5
0.968, 9.033e-5
0.972, 8.682e-5
0.976, 8.358e-5
0.980, 8.056e-5
0.984, 7.760e-5
0.988, 7.502e-5
0.992, 7.235e-5
0.996, 6.943e-5
1.000, 6.695e-5
