July 23, 2025   19:19:28
Differential Pulse Voltammetry
File: e:\Data Source:  Experiment
Instrument Model:  CHI620E
Header: 
Note: 

Init E (V) = 0
Final E (V) = 1
Incr E (V) = 0.004
Amplitude (V) = 0.05
Pulse Width (sec) = 0.05
Sample Width (sec) = 0.0167
Pulse Period (sec) = 0.5
Quiet Time (sec) = 2
Sensitivity (A/V) = 0.01

Results:

Channel 1:
Ep = 0.576V
ip = 1.229e-5A
Ap = 1.347e-6VA

Potential/V, Current/A

0.004, 6.533e-6
0.008, 6.180e-6
0.012, 5.898e-6
0.016, 5.592e-6
0.020, 5.321e-6
0.024, 4.991e-6
0.028, 4.909e-6
0.032, 4.709e-6
0.036, 4.544e-6
0.040, 4.438e-6
0.044, 4.391e-6
0.048, 4.073e-6
0.052, 4.002e-6
0.056, 3.885e-6
0.060, 3.979e-6
0.064, 3.849e-6
0.068, 3.696e-6
0.072, 3.661e-6
0.076, 3.614e-6
0.080, 3.567e-6
0.084, 3.543e-6
0.088, 3.426e-6
0.092, 3.496e-6
0.096, 3.331e-6
0.100, 3.273e-6
0.104, 3.379e-6
0.108, 3.155e-6
0.112, 3.214e-6
0.116, 3.249e-6
0.120, 3.143e-6
0.124, 3.037e-6
0.128, 2.990e-6
0.132, 3.025e-6
0.136, 3.061e-6
0.140, 3.014e-6
0.144, 2.978e-6
0.148, 2.990e-6
0.152, 2.943e-6
0.156, 2.919e-6
0.160, 3.061e-6
0.164, 2.955e-6
0.168, 3.049e-6
0.172, 2.931e-6
0.176, 3.014e-6
0.180, 2.908e-6
0.184, 2.743e-6
0.188, 2.919e-6
0.192, 2.849e-6
0.196, 2.766e-6
0.200, 2.849e-6
0.204, 2.943e-6
0.208, 2.896e-6
0.212, 2.766e-6
0.216, 2.625e-6
0.220, 2.778e-6
0.224, 2.778e-6
0.228, 2.660e-6
0.232, 2.755e-6
0.236, 2.708e-6
0.240, 2.755e-6
0.244, 2.731e-6
0.248, 2.578e-6
0.252, 2.849e-6
0.256, 2.731e-6
0.260, 2.649e-6
0.264, 2.602e-6
0.268, 2.578e-6
0.272, 2.684e-6
0.276, 2.555e-6
0.280, 2.519e-6
0.284, 2.731e-6
0.288, 2.731e-6
0.292, 2.543e-6
0.296, 2.566e-6
0.300, 2.613e-6
0.304, 2.578e-6
0.308, 2.625e-6
0.312, 2.543e-6
0.316, 2.625e-6
0.320, 2.731e-6
0.324, 2.472e-6
0.328, 2.472e-6
0.332, 2.496e-6
0.336, 2.672e-6
0.340, 2.566e-6
0.344, 2.543e-6
0.348, 2.543e-6
0.352, 2.507e-6
0.356, 2.484e-6
0.360, 2.555e-6
0.364, 2.625e-6
0.368, 2.672e-6
0.372, 2.613e-6
0.376, 2.425e-6
0.380, 2.625e-6
0.384, 2.625e-6
0.388, 2.519e-6
0.392, 2.613e-6
0.396, 2.731e-6
0.400, 2.578e-6
0.404, 2.708e-6
0.408, 2.602e-6
0.412, 2.578e-6
0.416, 2.719e-6
0.420, 2.590e-6
0.424, 2.719e-6
0.428, 2.684e-6
0.432, 2.837e-6
0.436, 2.696e-6
0.440, 2.743e-6
0.444, 2.731e-6
0.448, 2.837e-6
0.452, 2.814e-6
0.456, 2.919e-6
0.460, 2.967e-6
0.464, 3.014e-6
0.468, 3.002e-6
0.472, 3.202e-6
0.476, 3.261e-6
0.480, 3.508e-6
0.484, 3.449e-6
0.488, 3.520e-6
0.492, 3.638e-6
0.496, 4.002e-6
0.500, 4.132e-6
0.504, 4.132e-6
0.508, 4.579e-6
0.512, 4.909e-6
0.516, 5.168e-6
0.520, 5.568e-6
0.524, 6.086e-6
0.528, 6.569e-6
0.532, 7.287e-6
0.536, 7.981e-6
0.540, 8.770e-6
0.544, 9.947e-6
0.548, 1.097e-5
0.552, 1.207e-5
0.556, 1.335e-5
0.560, 1.444e-5
0.564, 1.550e-5
0.568, 1.617e-5
0.572, 1.641e-5
0.576, 1.657e-5
0.580, 1.622e-5
0.584, 1.596e-5
0.588, 1.532e-5
0.592, 1.460e-5
0.596, 1.404e-5
0.600, 1.357e-5
0.604, 1.326e-5
0.608, 1.265e-5
0.612, 1.237e-5
0.616, 1.188e-5
0.620, 1.160e-5
0.624, 1.129e-5
0.628, 1.100e-5
0.632, 1.067e-5
0.636, 1.042e-5
0.640, 1.019e-5
0.644, 9.900e-6
0.648, 9.877e-6
0.652, 9.783e-6
0.656, 9.500e-6
0.660, 9.394e-6
0.664, 9.170e-6
0.668, 9.100e-6
0.672, 8.970e-6
0.676, 8.829e-6
0.680, 8.664e-6
0.684, 8.699e-6
0.688, 8.476e-6
0.692, 8.393e-6
0.696, 8.064e-6
0.700, 8.087e-6
0.704, 7.993e-6
0.708, 8.017e-6
0.712, 7.781e-6
0.716, 7.887e-6
0.720, 7.558e-6
0.724, 7.628e-6
0.728, 7.475e-6
0.732, 7.511e-6
0.736, 7.334e-6
0.740, 7.369e-6
0.744, 7.181e-6
0.748, 7.216e-6
0.752, 7.087e-6
0.756, 6.934e-6
0.760, 6.993e-6
0.764, 6.875e-6
0.768, 6.828e-6
0.772, 6.816e-6
0.776, 6.769e-6
0.780, 6.792e-6
0.784, 6.604e-6
0.788, 6.533e-6
0.792, 6.604e-6
0.796, 6.510e-6
0.800, 6.392e-6
0.804, 6.463e-6
0.808, 6.416e-6
0.812, 6.475e-6
0.816, 6.322e-6
0.820, 6.251e-6
0.824, 6.204e-6
0.828, 6.298e-6
0.832, 6.345e-6
0.836, 6.063e-6
0.840, 6.169e-6
0.844, 6.251e-6
0.848, 6.086e-6
0.852, 6.086e-6
0.856, 6.086e-6
0.860, 6.063e-6
0.864, 6.015e-6
0.868, 6.027e-6
0.872, 6.239e-6
0.876, 6.133e-6
0.880, 6.169e-6
0.884, 6.286e-6
0.888, 6.180e-6
0.892, 6.227e-6
0.896, 6.310e-6
0.900, 6.216e-6
0.904, 6.133e-6
0.908, 6.298e-6
0.912, 6.322e-6
0.916, 6.404e-6
0.920, 6.345e-6
0.924, 6.404e-6
0.928, 6.369e-6
0.932, 6.369e-6
0.936, 6.522e-6
0.940, 6.451e-6
0.944, 6.557e-6
0.948, 6.533e-6
0.952, 6.427e-6
0.956, 6.581e-6
0.960, 6.486e-6
0.964, 6.498e-6
0.968, 6.686e-6
0.972, 6.616e-6
0.976, 6.722e-6
0.980, 6.639e-6
0.984, 6.745e-6
0.988, 6.863e-6
0.992, 6.863e-6
0.996, 6.887e-6
1.000, 6.993e-6
