July 15, 2025   15:01:15
Differential Pulse Voltammetry
File: e:\Data Source:  Experiment
Instrument Model:  CHI620E
Header: 
Note: 

Init E (V) = 0
Final E (V) = 1
Incr E (V) = 0.004
Amplitude (V) = 0.05
Pulse Width (sec) = 0.05
Sample Width (sec) = 0.0167
Pulse Period (sec) = 0.5
Quiet Time (sec) = 2
Sensitivity (A/V) = 0.01

Results:

Channel 1:

Potential/V, Current/A

0.004, 1.725e-5
0.008, 1.641e-5
0.012, 1.530e-5
0.016, 1.417e-5
0.020, 1.296e-5
0.024, 1.189e-5
0.028, 1.143e-5
0.032, 1.105e-5
0.036, 1.069e-5
0.040, 1.032e-5
0.044, 1.035e-5
0.048, 1.009e-5
0.052, 9.735e-6
0.056, 9.594e-6
0.060, 9.547e-6
0.064, 9.441e-6
0.068, 9.323e-6
0.072, 9.159e-6
0.076, 8.558e-6
0.080, 8.711e-6
0.084, 8.605e-6
0.088, 8.546e-6
0.092, 8.252e-6
0.096, 8.323e-6
0.100, 8.076e-6
0.104, 7.875e-6
0.108, 7.946e-6
0.112, 7.828e-6
0.116, 7.699e-6
0.120, 7.452e-6
0.124, 7.428e-6
0.128, 7.475e-6
0.132, 7.181e-6
0.136, 7.157e-6
0.140, 7.028e-6
0.144, 6.969e-6
0.148, 6.816e-6
0.152, 6.804e-6
0.156, 6.675e-6
0.160, 6.569e-6
0.164, 6.498e-6
0.168, 6.451e-6
0.172, 6.310e-6
0.176, 6.063e-6
0.180, 6.169e-6
0.184, 5.874e-6
0.188, 5.980e-6
0.192, 5.686e-6
0.196, 5.651e-6
0.200, 5.662e-6
0.204, 5.545e-6
0.208, 5.592e-6
0.212, 5.368e-6
0.216, 5.085e-6
0.220, 5.356e-6
0.224, 5.156e-6
0.228, 5.144e-6
0.232, 5.062e-6
0.236, 5.038e-6
0.240, 4.862e-6
0.244, 4.685e-6
0.248, 4.544e-6
0.252, 4.579e-6
0.256, 4.556e-6
0.260, 4.344e-6
0.264, 4.203e-6
0.268, 4.332e-6
0.272, 4.226e-6
0.276, 4.144e-6
0.280, 4.120e-6
0.284, 4.026e-6
0.288, 4.085e-6
0.292, 3.873e-6
0.296, 3.885e-6
0.300, 3.932e-6
0.304, 3.732e-6
0.308, 3.779e-6
0.312, 3.755e-6
0.316, 3.732e-6
0.320, 3.791e-6
0.324, 3.590e-6
0.328, 3.708e-6
0.332, 3.626e-6
0.336, 3.685e-6
0.340, 3.461e-6
0.344, 3.485e-6
0.348, 3.520e-6
0.352, 3.520e-6
0.356, 3.426e-6
0.360, 3.437e-6
0.364, 3.590e-6
0.368, 3.685e-6
0.372, 3.449e-6
0.376, 3.402e-6
0.380, 3.567e-6
0.384, 3.402e-6
0.388, 3.402e-6
0.392, 3.379e-6
0.396, 3.414e-6
0.400, 3.449e-6
0.404, 3.355e-6
0.408, 3.461e-6
0.412, 3.249e-6
0.416, 3.273e-6
0.420, 3.226e-6
0.424, 3.202e-6
0.428, 3.296e-6
0.432, 3.261e-6
0.436, 3.367e-6
0.440, 3.202e-6
0.444, 3.237e-6
0.448, 3.226e-6
0.452, 3.025e-6
0.456, 3.096e-6
0.460, 3.108e-6
0.464, 3.096e-6
0.468, 3.178e-6
0.472, 3.025e-6
0.476, 2.943e-6
0.480, 3.108e-6
0.484, 3.143e-6
0.488, 3.178e-6
0.492, 3.273e-6
0.496, 3.261e-6
0.500, 3.178e-6
0.504, 3.049e-6
0.508, 3.084e-6
0.512, 3.155e-6
0.516, 3.049e-6
0.520, 3.108e-6
0.524, 3.237e-6
0.528, 3.202e-6
0.532, 3.120e-6
0.536, 3.249e-6
0.540, 3.167e-6
0.544, 3.226e-6
0.548, 3.190e-6
0.552, 3.449e-6
0.556, 3.508e-6
0.560, 3.638e-6
0.564, 3.614e-6
0.568, 3.767e-6
0.572, 4.026e-6
0.576, 4.226e-6
0.580, 4.367e-6
0.584, 4.921e-6
0.588, 5.392e-6
0.592, 6.145e-6
0.596, 6.945e-6
0.600, 7.781e-6
0.604, 9.088e-6
0.608, 1.065e-5
0.612, 1.185e-5
0.616, 1.355e-5
0.620, 1.573e-5
0.624, 1.761e-5
0.628, 1.962e-5
0.632, 2.212e-5
0.636, 2.549e-5
0.640, 2.872e-5
0.644, 3.221e-5
0.648, 3.570e-5
0.652, 3.888e-5
0.656, 4.211e-5
0.660, 4.490e-5
0.664, 4.718e-5
0.668, 4.935e-5
0.672, 5.137e-5
0.676, 5.268e-5
0.680, 5.332e-5
0.684, 5.327e-5
0.688, 5.279e-5
0.692, 5.279e-5
0.696, 5.362e-5
0.700, 5.263e-5
0.704, 5.343e-5
0.708, 5.390e-5
0.712, 5.450e-5
0.716, 5.526e-5
0.720, 5.563e-5
0.724, 5.609e-5
0.728, 5.686e-5
0.732, 5.754e-5
0.736, 5.795e-5
0.740, 5.877e-5
0.744, 5.900e-5
0.748, 5.953e-5
0.752, 6.018e-5
0.756, 6.083e-5
0.760, 6.152e-5
0.764, 6.196e-5
0.768, 6.240e-5
0.772, 6.241e-5
0.776, 6.279e-5
0.780, 6.282e-5
0.784, 6.306e-5
0.788, 6.277e-5
0.792, 6.272e-5
0.796, 6.219e-5
0.800, 6.193e-5
0.804, 6.152e-5
0.808, 6.112e-5
0.812, 6.037e-5
0.816, 5.968e-5
0.820, 5.861e-5
0.824, 5.756e-5
0.828, 5.628e-5
0.832, 5.499e-5
0.836, 5.347e-5
0.840, 5.194e-5
0.844, 5.021e-5
0.848, 4.855e-5
0.852, 4.682e-5
0.856, 4.485e-5
0.860, 4.317e-5
0.864, 4.148e-5
0.868, 3.962e-5
0.872, 3.816e-5
0.876, 3.623e-5
0.880, 3.500e-5
0.884, 3.356e-5
0.888, 3.181e-5
0.892, 3.014e-5
0.896, 2.897e-5
0.900, 2.750e-5
0.904, 2.730e-5
0.908, 2.550e-5
0.912, 2.454e-5
0.916, 2.328e-5
0.920, 2.304e-5
0.924, 2.223e-5
0.928, 2.159e-5
0.932, 2.110e-5
0.936, 2.017e-5
0.940, 1.975e-5
0.944, 1.926e-5
0.948, 1.895e-5
0.952, 1.835e-5
0.956, 1.812e-5
0.960, 1.759e-5
0.964, 1.738e-5
0.968, 1.708e-5
0.972, 1.687e-5
0.976, 1.659e-5
0.980, 1.662e-5
0.984, 1.607e-5
0.988, 1.620e-5
0.992, 1.596e-5
0.996, 1.600e-5
1.000, 1.583e-5
