July 21, 2025   20:04:28
Differential Pulse Voltammetry
File: e:\Data Source:  Experiment
Instrument Model:  CHI620E
Header: 
Note: 

Init E (V) = 0
Final E (V) = 1
Incr E (V) = 0.004
Amplitude (V) = 0.05
Pulse Width (sec) = 0.05
Sample Width (sec) = 0.0167
Pulse Period (sec) = 0.5
Quiet Time (sec) = 2
Sensitivity (A/V) = 0.01

Results:

Channel 1:
Ep = 0.192V
ip = 1.080e-6A
Ap = 1.723e-7VA

Ep = 0.780V
ip = 4.992e-5A
Ap = 8.496e-6VA

Potential/V, Current/A

0.004, 5.851e-6
0.008, 5.509e-6
0.012, 5.286e-6
0.016, 5.027e-6
0.020, 5.038e-6
0.024, 4.697e-6
0.028, 4.673e-6
0.032, 4.638e-6
0.036, 4.544e-6
0.040, 4.344e-6
0.044, 4.379e-6
0.048, 4.179e-6
0.052, 4.238e-6
0.056, 4.050e-6
0.060, 4.108e-6
0.064, 4.144e-6
0.068, 3.979e-6
0.072, 4.014e-6
0.076, 3.944e-6
0.080, 3.979e-6
0.084, 3.920e-6
0.088, 3.838e-6
0.092, 3.944e-6
0.096, 3.838e-6
0.100, 3.885e-6
0.104, 3.920e-6
0.108, 4.097e-6
0.112, 3.849e-6
0.116, 4.050e-6
0.120, 3.920e-6
0.124, 4.120e-6
0.128, 3.991e-6
0.132, 4.132e-6
0.136, 4.061e-6
0.140, 4.085e-6
0.144, 4.108e-6
0.148, 4.179e-6
0.152, 4.085e-6
0.156, 4.320e-6
0.160, 4.273e-6
0.164, 4.403e-6
0.168, 4.332e-6
0.172, 4.320e-6
0.176, 4.462e-6
0.180, 4.344e-6
0.184, 4.450e-6
0.188, 4.473e-6
0.192, 4.497e-6
0.196, 4.379e-6
0.200, 4.414e-6
0.204, 4.426e-6
0.208, 4.320e-6
0.212, 4.379e-6
0.216, 4.403e-6
0.220, 4.320e-6
0.224, 4.285e-6
0.228, 4.261e-6
0.232, 4.250e-6
0.236, 4.238e-6
0.240, 4.167e-6
0.244, 4.073e-6
0.248, 4.038e-6
0.252, 4.002e-6
0.256, 4.050e-6
0.260, 3.955e-6
0.264, 3.814e-6
0.268, 3.696e-6
0.272, 3.708e-6
0.276, 3.638e-6
0.280, 3.649e-6
0.284, 3.661e-6
0.288, 3.461e-6
0.292, 3.449e-6
0.296, 3.390e-6
0.300, 3.379e-6
0.304, 3.367e-6
0.308, 3.367e-6
0.312, 3.061e-6
0.316, 3.190e-6
0.320, 3.120e-6
0.324, 3.072e-6
0.328, 3.002e-6
0.332, 3.049e-6
0.336, 2.884e-6
0.340, 2.908e-6
0.344, 2.778e-6
0.348, 2.861e-6
0.352, 2.755e-6
0.356, 2.755e-6
0.360, 2.755e-6
0.364, 2.755e-6
0.368, 2.708e-6
0.372, 2.672e-6
0.376, 2.660e-6
0.380, 2.719e-6
0.384, 2.507e-6
0.388, 2.390e-6
0.392, 2.496e-6
0.396, 2.531e-6
0.400, 2.578e-6
0.404, 2.460e-6
0.408, 2.319e-6
0.412, 2.378e-6
0.416, 2.248e-6
0.420, 2.213e-6
0.424, 2.248e-6
0.428, 2.272e-6
0.432, 2.154e-6
0.436, 2.084e-6
0.440, 2.060e-6
0.444, 2.272e-6
0.448, 2.178e-6
0.452, 2.166e-6
0.456, 2.095e-6
0.460, 2.178e-6
0.464, 2.142e-6
0.468, 2.001e-6
0.472, 2.072e-6
0.476, 2.037e-6
0.480, 2.107e-6
0.484, 2.013e-6
0.488, 1.919e-6
0.492, 1.942e-6
0.496, 2.001e-6
0.500, 2.107e-6
0.504, 1.884e-6
0.508, 1.978e-6
0.512, 1.895e-6
0.516, 1.860e-6
0.520, 1.907e-6
0.524, 1.989e-6
0.528, 1.978e-6
0.532, 1.907e-6
0.536, 1.884e-6
0.540, 1.919e-6
0.544, 2.142e-6
0.548, 1.907e-6
0.552, 1.954e-6
0.556, 1.907e-6
0.560, 2.107e-6
0.564, 2.072e-6
0.568, 1.907e-6
0.572, 2.060e-6
0.576, 2.307e-6
0.580, 2.095e-6
0.584, 2.354e-6
0.588, 2.284e-6
0.592, 2.401e-6
0.596, 2.496e-6
0.600, 2.590e-6
0.604, 2.790e-6
0.608, 2.931e-6
0.612, 3.037e-6
0.616, 3.320e-6
0.620, 3.614e-6
0.624, 4.120e-6
0.628, 4.568e-6
0.632, 5.250e-6
0.636, 6.145e-6
0.640, 7.440e-6
0.644, 8.911e-6
0.648, 1.068e-5
0.652, 1.247e-5
0.656, 1.444e-5
0.660, 1.681e-5
0.664, 1.926e-5
0.668, 2.188e-5
0.672, 2.464e-5
0.676, 2.729e-5
0.680, 3.005e-5
0.684, 3.211e-5
0.688, 3.353e-5
0.692, 3.468e-5
0.696, 3.513e-5
0.700, 3.523e-5
0.704, 3.526e-5
0.708, 3.578e-5
0.712, 3.660e-5
0.716, 3.769e-5
0.720, 3.893e-5
0.724, 4.040e-5
0.728, 4.194e-5
0.732, 4.386e-5
0.736, 4.604e-5
0.740, 4.789e-5
0.744, 4.992e-5
0.748, 5.197e-5
0.752, 5.360e-5
0.756, 5.509e-5
0.760, 5.613e-5
0.764, 5.713e-5
0.768, 5.785e-5
0.772, 5.818e-5
0.776, 5.832e-5
0.780, 5.846e-5
0.784, 5.812e-5
0.788, 5.765e-5
0.792, 5.687e-5
0.796, 5.614e-5
0.800, 5.523e-5
0.804, 5.413e-5
0.808, 5.299e-5
0.812, 5.171e-5
0.816, 5.036e-5
0.820, 4.887e-5
0.824, 4.725e-5
0.828, 4.589e-5
0.832, 4.420e-5
0.836, 4.260e-5
0.840, 4.091e-5
0.844, 3.937e-5
0.848, 3.773e-5
0.852, 3.618e-5
0.856, 3.475e-5
0.860, 3.343e-5
0.864, 3.218e-5
0.868, 3.095e-5
0.872, 2.990e-5
0.876, 2.898e-5
0.880, 2.805e-5
0.884, 2.718e-5
0.888, 2.624e-5
0.892, 2.557e-5
0.896, 2.479e-5
0.900, 2.403e-5
0.904, 2.325e-5
0.908, 2.272e-5
0.912, 2.221e-5
0.916, 2.165e-5
0.920, 2.100e-5
0.924, 2.044e-5
0.928, 2.002e-5
0.932, 1.941e-5
0.936, 1.905e-5
0.940, 1.858e-5
0.944, 1.821e-5
0.948, 1.780e-5
0.952, 1.743e-5
0.956, 1.710e-5
0.960, 1.685e-5
0.964, 1.627e-5
0.968, 1.616e-5
0.972, 1.600e-5
0.976, 1.564e-5
0.980, 1.552e-5
0.984, 1.522e-5
0.988, 1.503e-5
0.992, 1.483e-5
0.996, 1.461e-5
1.000, 1.450e-5
