July 21, 2025   19:57:58
Differential Pulse Voltammetry
File: e:\Data Source:  Experiment
Instrument Model:  CHI620E
Header: 
Note: 

Init E (V) = 0
Final E (V) = 1
Incr E (V) = 0.004
Amplitude (V) = 0.05
Pulse Width (sec) = 0.05
Sample Width (sec) = 0.0167
Pulse Period (sec) = 0.5
Quiet Time (sec) = 2
Sensitivity (A/V) = 0.01

Results:

Channel 1:
Ep = 0.784V
ip = 4.098e-5A
Ap = 5.586e-6VA

Potential/V, Current/A

0.004, 6.110e-6
0.008, 5.509e-6
0.012, 5.274e-6
0.016, 5.215e-6
0.020, 5.109e-6
0.024, 4.803e-6
0.028, 4.744e-6
0.032, 4.568e-6
0.036, 4.450e-6
0.040, 4.485e-6
0.044, 4.403e-6
0.048, 4.285e-6
0.052, 4.203e-6
0.056, 3.932e-6
0.060, 4.097e-6
0.064, 4.061e-6
0.068, 3.873e-6
0.072, 3.849e-6
0.076, 3.920e-6
0.080, 3.967e-6
0.084, 3.932e-6
0.088, 3.920e-6
0.092, 3.991e-6
0.096, 3.873e-6
0.100, 3.567e-6
0.104, 3.755e-6
0.108, 3.802e-6
0.112, 3.779e-6
0.116, 3.661e-6
0.120, 3.685e-6
0.124, 3.696e-6
0.128, 3.673e-6
0.132, 3.708e-6
0.136, 3.708e-6
0.140, 3.861e-6
0.144, 3.649e-6
0.148, 3.826e-6
0.152, 3.802e-6
0.156, 3.614e-6
0.160, 3.826e-6
0.164, 3.685e-6
0.168, 3.791e-6
0.172, 3.838e-6
0.176, 3.791e-6
0.180, 3.767e-6
0.184, 3.579e-6
0.188, 3.661e-6
0.192, 3.532e-6
0.196, 3.543e-6
0.200, 3.496e-6
0.204, 3.543e-6
0.208, 3.543e-6
0.212, 3.320e-6
0.216, 3.331e-6
0.220, 3.273e-6
0.224, 3.320e-6
0.228, 3.237e-6
0.232, 3.226e-6
0.236, 3.014e-6
0.240, 3.014e-6
0.244, 3.014e-6
0.248, 2.908e-6
0.252, 2.955e-6
0.256, 2.861e-6
0.260, 2.778e-6
0.264, 2.766e-6
0.268, 2.684e-6
0.272, 2.649e-6
0.276, 2.460e-6
0.280, 2.519e-6
0.284, 2.437e-6
0.288, 2.378e-6
0.292, 2.354e-6
0.296, 2.272e-6
0.300, 2.413e-6
0.304, 2.201e-6
0.308, 2.225e-6
0.312, 2.084e-6
0.316, 2.107e-6
0.320, 2.072e-6
0.324, 1.848e-6
0.328, 1.978e-6
0.332, 1.919e-6
0.336, 1.872e-6
0.340, 1.931e-6
0.344, 1.989e-6
0.348, 1.860e-6
0.352, 1.695e-6
0.356, 1.719e-6
0.360, 1.766e-6
0.364, 1.836e-6
0.368, 1.766e-6
0.372, 1.730e-6
0.376, 1.589e-6
0.380, 1.695e-6
0.384, 1.625e-6
0.388, 1.801e-6
0.392, 1.683e-6
0.396, 1.566e-6
0.400, 1.719e-6
0.404, 1.519e-6
0.408, 1.519e-6
0.412, 1.448e-6
0.416, 1.577e-6
0.420, 1.413e-6
0.424, 1.424e-6
0.428, 1.413e-6
0.432, 1.507e-6
0.436, 1.542e-6
0.440, 1.283e-6
0.444, 1.448e-6
0.448, 1.413e-6
0.452, 1.377e-6
0.456, 1.330e-6
0.460, 1.401e-6
0.464, 1.507e-6
0.468, 1.330e-6
0.472, 1.342e-6
0.476, 1.330e-6
0.480, 1.318e-6
0.484, 1.318e-6
0.488, 1.260e-6
0.492, 1.248e-6
0.496, 1.330e-6
0.500, 1.330e-6
0.504, 1.177e-6
0.508, 1.295e-6
0.512, 1.436e-6
0.516, 1.236e-6
0.520, 1.236e-6
0.524, 1.318e-6
0.528, 1.271e-6
0.532, 1.436e-6
0.536, 1.342e-6
0.540, 1.366e-6
0.544, 1.401e-6
0.548, 1.366e-6
0.552, 1.271e-6
0.556, 1.213e-6
0.560, 1.460e-6
0.564, 1.366e-6
0.568, 1.354e-6
0.572, 1.507e-6
0.576, 1.389e-6
0.580, 1.424e-6
0.584, 1.554e-6
0.588, 1.471e-6
0.592, 1.589e-6
0.596, 1.589e-6
0.600, 1.413e-6
0.604, 1.719e-6
0.608, 1.683e-6
0.612, 1.683e-6
0.616, 1.683e-6
0.620, 1.813e-6
0.624, 1.825e-6
0.628, 1.884e-6
0.632, 1.848e-6
0.636, 2.107e-6
0.640, 2.060e-6
0.644, 2.401e-6
0.648, 2.602e-6
0.652, 2.825e-6
0.656, 2.943e-6
0.660, 3.131e-6
0.664, 3.284e-6
0.668, 3.779e-6
0.672, 3.897e-6
0.676, 4.156e-6
0.680, 4.320e-6
0.684, 4.803e-6
0.688, 4.838e-6
0.692, 5.239e-6
0.696, 5.486e-6
0.700, 6.133e-6
0.704, 6.910e-6
0.708, 7.946e-6
0.712, 9.217e-6
0.716, 1.105e-5
0.720, 1.298e-5
0.724, 1.490e-5
0.728, 1.718e-5
0.732, 2.038e-5
0.736, 2.411e-5
0.740, 2.813e-5
0.744, 3.243e-5
0.748, 3.616e-5
0.752, 3.944e-5
0.756, 4.184e-5
0.760, 4.403e-5
0.764, 4.545e-5
0.768, 4.658e-5
0.772, 4.748e-5
0.776, 4.832e-5
0.780, 4.909e-5
0.784, 4.936e-5
0.788, 4.932e-5
0.792, 4.923e-5
0.796, 4.899e-5
0.800, 4.849e-5
0.804, 4.790e-5
0.808, 4.736e-5
0.812, 4.646e-5
0.816, 4.549e-5
0.820, 4.450e-5
0.824, 4.331e-5
0.828, 4.208e-5
0.832, 4.105e-5
0.836, 3.967e-5
0.840, 3.844e-5
0.844, 3.707e-5
0.848, 3.598e-5
0.852, 3.453e-5
0.856, 3.344e-5
0.860, 3.242e-5
0.864, 3.140e-5
0.868, 3.034e-5
0.872, 2.954e-5
0.876, 2.872e-5
0.880, 2.805e-5
0.884, 2.723e-5
0.888, 2.633e-5
0.892, 2.571e-5
0.896, 2.512e-5
0.900, 2.450e-5
0.904, 2.376e-5
0.908, 2.331e-5
0.912, 2.278e-5
0.916, 2.223e-5
0.920, 2.166e-5
0.924, 2.112e-5
0.928, 2.057e-5
0.932, 2.012e-5
0.936, 1.973e-5
0.940, 1.927e-5
0.944, 1.896e-5
0.948, 1.851e-5
0.952, 1.811e-5
0.956, 1.776e-5
0.960, 1.743e-5
0.964, 1.710e-5
0.968, 1.687e-5
0.972, 1.660e-5
0.976, 1.633e-5
0.980, 1.607e-5
0.984, 1.573e-5
0.988, 1.559e-5
0.992, 1.537e-5
0.996, 1.529e-5
1.000, 1.500e-5
