July 15, 2025   16:16:56
Differential Pulse Voltammetry
File: e:\Data Source:  Experiment
Instrument Model:  CHI620E
Header: 
Note: 

Init E (V) = 0
Final E (V) = 1
Incr E (V) = 0.004
Amplitude (V) = 0.05
Pulse Width (sec) = 0.05
Sample Width (sec) = 0.0167
Pulse Period (sec) = 0.5
Quiet Time (sec) = 2
Sensitivity (A/V) = 0.01

Results:

Channel 1:

Potential/V, Current/A

0.004, 2.418e-5
0.008, 2.235e-5
0.012, 2.108e-5
0.016, 1.946e-5
0.020, 1.779e-5
0.024, 1.659e-5
0.028, 1.573e-5
0.032, 1.514e-5
0.036, 1.440e-5
0.040, 1.395e-5
0.044, 1.361e-5
0.048, 1.324e-5
0.052, 1.290e-5
0.056, 1.242e-5
0.060, 1.223e-5
0.064, 1.183e-5
0.068, 1.144e-5
0.072, 1.122e-5
0.076, 1.094e-5
0.080, 1.075e-5
0.084, 1.044e-5
0.088, 1.019e-5
0.092, 9.900e-6
0.096, 9.724e-6
0.100, 9.370e-6
0.104, 9.347e-6
0.108, 9.100e-6
0.112, 8.864e-6
0.116, 8.664e-6
0.120, 8.335e-6
0.124, 8.382e-6
0.128, 8.123e-6
0.132, 7.923e-6
0.136, 7.793e-6
0.140, 7.558e-6
0.144, 7.558e-6
0.148, 7.204e-6
0.152, 7.216e-6
0.156, 7.098e-6
0.160, 7.040e-6
0.164, 6.910e-6
0.168, 6.734e-6
0.172, 6.581e-6
0.176, 6.557e-6
0.180, 6.439e-6
0.184, 6.216e-6
0.188, 6.274e-6
0.192, 6.098e-6
0.196, 6.098e-6
0.200, 5.898e-6
0.204, 5.945e-6
0.208, 5.815e-6
0.212, 5.698e-6
0.216, 5.639e-6
0.220, 5.592e-6
0.224, 5.556e-6
0.228, 5.403e-6
0.232, 5.474e-6
0.236, 5.239e-6
0.240, 5.227e-6
0.244, 5.250e-6
0.248, 5.180e-6
0.252, 5.062e-6
0.256, 5.168e-6
0.260, 4.980e-6
0.264, 4.921e-6
0.268, 4.885e-6
0.272, 4.803e-6
0.276, 4.909e-6
0.280, 4.626e-6
0.284, 4.885e-6
0.288, 4.921e-6
0.292, 4.709e-6
0.296, 4.662e-6
0.300, 4.673e-6
0.304, 4.662e-6
0.308, 4.591e-6
0.312, 4.485e-6
0.316, 4.438e-6
0.320, 4.603e-6
0.324, 4.438e-6
0.328, 4.391e-6
0.332, 4.379e-6
0.336, 4.673e-6
0.340, 4.414e-6
0.344, 4.344e-6
0.348, 4.462e-6
0.352, 4.367e-6
0.356, 4.344e-6
0.360, 4.332e-6
0.364, 4.320e-6
0.368, 4.379e-6
0.372, 4.450e-6
0.376, 4.285e-6
0.380, 4.285e-6
0.384, 4.438e-6
0.388, 4.203e-6
0.392, 4.226e-6
0.396, 4.297e-6
0.400, 4.297e-6
0.404, 4.285e-6
0.408, 4.379e-6
0.412, 4.367e-6
0.416, 4.285e-6
0.420, 4.226e-6
0.424, 4.203e-6
0.428, 4.261e-6
0.432, 4.403e-6
0.436, 4.250e-6
0.440, 4.332e-6
0.444, 4.462e-6
0.448, 4.673e-6
0.452, 4.650e-6
0.456, 4.591e-6
0.460, 4.921e-6
0.464, 5.121e-6
0.468, 5.180e-6
0.472, 5.486e-6
0.476, 5.768e-6
0.480, 6.204e-6
0.484, 6.251e-6
0.488, 6.981e-6
0.492, 7.616e-6
0.496, 8.382e-6
0.500, 9.206e-6
0.504, 1.016e-5
0.508, 1.150e-5
0.512, 1.304e-5
0.516, 1.486e-5
0.520, 1.687e-5
0.524, 1.920e-5
0.528, 2.154e-5
0.532, 2.452e-5
0.536, 2.768e-5
0.540, 3.129e-5
0.544, 3.501e-5
0.548, 3.867e-5
0.552, 4.243e-5
0.556, 4.576e-5
0.560, 4.850e-5
0.564, 5.085e-5
0.568, 5.257e-5
0.572, 5.421e-5
0.576, 5.527e-5
0.580, 5.543e-5
0.584, 5.513e-5
0.588, 5.445e-5
0.592, 5.355e-5
0.596, 5.310e-5
0.600, 5.274e-5
0.604, 5.293e-5
0.608, 5.302e-5
0.612, 5.336e-5
0.616, 5.368e-5
0.620, 5.425e-5
0.624, 5.468e-5
0.628, 5.507e-5
0.632, 5.545e-5
0.636, 5.600e-5
0.640, 5.634e-5
0.644, 5.687e-5
0.648, 5.734e-5
0.652, 5.771e-5
0.656, 5.809e-5
0.660, 5.860e-5
0.664, 5.910e-5
0.668, 5.967e-5
0.672, 5.998e-5
0.676, 6.054e-5
0.680, 6.087e-5
0.684, 6.116e-5
0.688, 6.133e-5
0.692, 6.146e-5
0.696, 6.150e-5
0.700, 6.139e-5
0.704, 6.127e-5
0.708, 6.097e-5
0.712, 6.072e-5
0.716, 6.058e-5
0.720, 5.988e-5
0.724, 5.932e-5
0.728, 5.852e-5
0.732, 5.799e-5
0.736, 5.699e-5
0.740, 5.595e-5
0.744, 5.487e-5
0.748, 5.350e-5
0.752, 5.242e-5
0.756, 5.094e-5
0.760, 4.944e-5
0.764, 4.797e-5
0.768, 4.637e-5
0.772, 4.462e-5
0.776, 4.314e-5
0.780, 4.138e-5
0.784, 3.984e-5
0.788, 3.813e-5
0.792, 3.645e-5
0.796, 3.513e-5
0.800, 3.343e-5
0.804, 3.214e-5
0.808, 3.084e-5
0.812, 2.951e-5
0.816, 2.839e-5
0.820, 2.731e-5
0.824, 2.596e-5
0.828, 2.504e-5
0.832, 2.410e-5
0.836, 2.326e-5
0.840, 2.234e-5
0.844, 2.163e-5
0.848, 2.102e-5
0.852, 2.046e-5
0.856, 1.987e-5
0.860, 1.932e-5
0.864, 1.876e-5
0.868, 1.842e-5
0.872, 1.792e-5
0.876, 1.769e-5
0.880, 1.730e-5
0.884, 1.696e-5
0.888, 1.665e-5
0.892, 1.652e-5
0.896, 1.629e-5
0.900, 1.610e-5
0.904, 1.600e-5
0.908, 1.587e-5
0.912, 1.563e-5
0.916, 1.550e-5
0.920, 1.544e-5
0.924, 1.543e-5
0.928, 1.530e-5
0.932, 1.523e-5
0.936, 1.508e-5
0.940, 1.530e-5
0.944, 1.515e-5
0.948, 1.532e-5
0.952, 1.519e-5
0.956, 1.544e-5
0.960, 1.547e-5
0.964, 1.533e-5
0.968, 1.532e-5
0.972, 1.555e-5
0.976, 1.560e-5
0.980, 1.567e-5
0.984, 1.573e-5
0.988, 1.580e-5
0.992, 1.575e-5
0.996, 1.581e-5
1.000, 1.590e-5
