July 15, 2025   16:27:47
Differential Pulse Voltammetry
File: e:\Data Source:  Experiment
Instrument Model:  CHI620E
Header: 
Note: 

Init E (V) = 0
Final E (V) = 1
Incr E (V) = 0.004
Amplitude (V) = 0.05
Pulse Width (sec) = 0.05
Sample Width (sec) = 0.0167
Pulse Period (sec) = 0.5
Quiet Time (sec) = 2
Sensitivity (A/V) = 0.01

Results:

Channel 1:
Ep = 0.576V
ip = 1.586e-5A
Ap = 5.936e-7VA

Potential/V, Current/A

0.004, 2.427e-5
0.008, 2.233e-5
0.012, 2.054e-5
0.016, 1.885e-5
0.020, 1.719e-5
0.024, 1.607e-5
0.028, 1.529e-5
0.032, 1.459e-5
0.036, 1.388e-5
0.040, 1.363e-5
0.044, 1.317e-5
0.048, 1.290e-5
0.052, 1.256e-5
0.056, 1.198e-5
0.060, 1.174e-5
0.064, 1.141e-5
0.068, 1.115e-5
0.072, 1.064e-5
0.076, 1.048e-5
0.080, 1.015e-5
0.084, 9.865e-6
0.088, 9.547e-6
0.092, 9.370e-6
0.096, 9.100e-6
0.100, 8.829e-6
0.104, 8.511e-6
0.108, 8.440e-6
0.112, 8.134e-6
0.116, 8.052e-6
0.120, 7.722e-6
0.124, 7.758e-6
0.128, 7.511e-6
0.132, 7.051e-6
0.136, 7.134e-6
0.140, 7.075e-6
0.144, 6.851e-6
0.148, 6.792e-6
0.152, 6.628e-6
0.156, 6.463e-6
0.160, 6.451e-6
0.164, 6.274e-6
0.168, 6.192e-6
0.172, 6.157e-6
0.176, 5.910e-6
0.180, 5.898e-6
0.184, 5.780e-6
0.188, 5.733e-6
0.192, 5.733e-6
0.196, 5.439e-6
0.200, 5.568e-6
0.204, 5.427e-6
0.208, 5.415e-6
0.212, 5.203e-6
0.216, 5.203e-6
0.220, 5.156e-6
0.224, 5.121e-6
0.228, 4.991e-6
0.232, 4.944e-6
0.236, 4.909e-6
0.240, 4.815e-6
0.244, 4.803e-6
0.248, 4.697e-6
0.252, 4.721e-6
0.256, 4.591e-6
0.260, 4.544e-6
0.264, 4.650e-6
0.268, 4.426e-6
0.272, 4.485e-6
0.276, 4.403e-6
0.280, 4.356e-6
0.284, 4.367e-6
0.288, 4.414e-6
0.292, 4.261e-6
0.296, 4.297e-6
0.300, 4.226e-6
0.304, 4.261e-6
0.308, 4.179e-6
0.312, 4.167e-6
0.316, 4.203e-6
0.320, 4.097e-6
0.324, 4.026e-6
0.328, 3.955e-6
0.332, 3.991e-6
0.336, 4.073e-6
0.340, 3.967e-6
0.344, 3.861e-6
0.348, 4.038e-6
0.352, 3.967e-6
0.356, 3.920e-6
0.360, 3.991e-6
0.364, 3.944e-6
0.368, 3.979e-6
0.372, 3.944e-6
0.376, 3.979e-6
0.380, 4.038e-6
0.384, 3.932e-6
0.388, 3.967e-6
0.392, 3.897e-6
0.396, 3.944e-6
0.400, 4.002e-6
0.404, 3.967e-6
0.408, 3.849e-6
0.412, 3.908e-6
0.416, 4.050e-6
0.420, 3.861e-6
0.424, 3.955e-6
0.428, 4.050e-6
0.432, 3.861e-6
0.436, 3.908e-6
0.440, 3.920e-6
0.444, 3.979e-6
0.448, 4.073e-6
0.452, 4.061e-6
0.456, 4.238e-6
0.460, 4.309e-6
0.464, 4.250e-6
0.468, 4.320e-6
0.472, 4.426e-6
0.476, 4.626e-6
0.480, 4.779e-6
0.484, 5.027e-6
0.488, 5.262e-6
0.492, 5.486e-6
0.496, 5.686e-6
0.500, 6.274e-6
0.504, 6.781e-6
0.508, 7.511e-6
0.512, 8.417e-6
0.516, 9.712e-6
0.520, 1.104e-5
0.524, 1.253e-5
0.528, 1.450e-5
0.532, 1.679e-5
0.536, 1.922e-5
0.540, 2.205e-5
0.544, 2.553e-5
0.548, 2.911e-5
0.552, 3.328e-5
0.556, 3.749e-5
0.560, 4.198e-5
0.564, 4.605e-5
0.568, 4.941e-5
0.572, 5.228e-5
0.576, 5.377e-5
0.580, 5.373e-5
0.584, 5.266e-5
0.588, 5.117e-5
0.592, 5.007e-5
0.596, 4.940e-5
0.600, 4.892e-5
0.604, 4.931e-5
0.608, 4.937e-5
0.612, 4.971e-5
0.616, 5.008e-5
0.620, 5.061e-5
0.624, 5.095e-5
0.628, 5.150e-5
0.632, 5.191e-5
0.636, 5.242e-5
0.640, 5.304e-5
0.644, 5.346e-5
0.648, 5.399e-5
0.652, 5.453e-5
0.656, 5.523e-5
0.660, 5.580e-5
0.664, 5.633e-5
0.668, 5.689e-5
0.672, 5.755e-5
0.676, 5.808e-5
0.680, 5.868e-5
0.684, 5.920e-5
0.688, 5.961e-5
0.692, 5.991e-5
0.696, 6.012e-5
0.700, 6.038e-5
0.704, 6.038e-5
0.708, 6.032e-5
0.712, 6.032e-5
0.716, 6.028e-5
0.720, 5.998e-5
0.724, 5.964e-5
0.728, 5.895e-5
0.732, 5.844e-5
0.736, 5.785e-5
0.740, 5.712e-5
0.744, 5.620e-5
0.748, 5.527e-5
0.752, 5.415e-5
0.756, 5.300e-5
0.760, 5.161e-5
0.764, 5.027e-5
0.768, 4.875e-5
0.772, 4.701e-5
0.776, 4.549e-5
0.780, 4.391e-5
0.784, 4.214e-5
0.788, 4.064e-5
0.792, 3.894e-5
0.796, 3.746e-5
0.800, 3.596e-5
0.804, 3.453e-5
0.808, 3.301e-5
0.812, 3.168e-5
0.816, 3.050e-5
0.820, 2.936e-5
0.824, 2.810e-5
0.828, 2.723e-5
0.832, 2.626e-5
0.836, 2.527e-5
0.840, 2.451e-5
0.844, 2.384e-5
0.848, 2.311e-5
0.852, 2.227e-5
0.856, 2.184e-5
0.860, 2.131e-5
0.864, 2.074e-5
0.868, 2.031e-5
0.872, 1.978e-5
0.876, 1.938e-5
0.880, 1.895e-5
0.884, 1.868e-5
0.888, 1.836e-5
0.892, 1.809e-5
0.896, 1.791e-5
0.900, 1.756e-5
0.904, 1.746e-5
0.908, 1.725e-5
0.912, 1.701e-5
0.916, 1.720e-5
0.920, 1.693e-5
0.924, 1.685e-5
0.928, 1.678e-5
0.932, 1.669e-5
0.936, 1.667e-5
0.940, 1.672e-5
0.944, 1.661e-5
0.948, 1.666e-5
0.952, 1.656e-5
0.956, 1.679e-5
0.960, 1.674e-5
0.964, 1.666e-5
0.968, 1.686e-5
0.972, 1.698e-5
0.976, 1.699e-5
0.980, 1.703e-5
0.984, 1.715e-5
0.988, 1.729e-5
0.992, 1.736e-5
0.996, 1.738e-5
1.000, 1.747e-5
