July 24, 2025   12:44:13
Differential Pulse Voltammetry
File: e:\Data Source:  Experiment
Instrument Model:  CHI620E
Header: 
Note: 

Init E (V) = 0
Final E (V) = 1
Incr E (V) = 0.004
Amplitude (V) = 0.05
Pulse Width (sec) = 0.05
Sample Width (sec) = 0.0167
Pulse Period (sec) = 0.5
Quiet Time (sec) = 2
Sensitivity (A/V) = 0.01

Results:

Channel 1:
Ep = 0.656V
ip = 2.537e-5A
Ap = 2.185e-6VA

Potential/V, Current/A

0.004, 8.817e-6
0.008, 8.052e-6
0.012, 7.558e-6
0.016, 7.098e-6
0.020, 6.734e-6
0.024, 6.522e-6
0.028, 6.427e-6
0.032, 6.251e-6
0.036, 6.192e-6
0.040, 5.992e-6
0.044, 5.898e-6
0.048, 6.051e-6
0.052, 5.862e-6
0.056, 5.768e-6
0.060, 5.968e-6
0.064, 5.839e-6
0.068, 5.815e-6
0.072, 5.462e-6
0.076, 5.603e-6
0.080, 5.486e-6
0.084, 5.333e-6
0.088, 5.286e-6
0.092, 5.380e-6
0.096, 5.392e-6
0.100, 5.262e-6
0.104, 5.262e-6
0.108, 5.180e-6
0.112, 5.191e-6
0.116, 5.203e-6
0.120, 4.932e-6
0.124, 5.062e-6
0.128, 5.097e-6
0.132, 4.897e-6
0.136, 4.956e-6
0.140, 4.815e-6
0.144, 4.897e-6
0.148, 4.827e-6
0.152, 4.756e-6
0.156, 4.756e-6
0.160, 4.815e-6
0.164, 4.568e-6
0.168, 4.673e-6
0.172, 4.591e-6
0.176, 4.485e-6
0.180, 4.356e-6
0.184, 4.403e-6
0.188, 4.273e-6
0.192, 4.320e-6
0.196, 4.214e-6
0.200, 4.332e-6
0.204, 4.167e-6
0.208, 3.991e-6
0.212, 4.132e-6
0.216, 3.861e-6
0.220, 3.944e-6
0.224, 3.743e-6
0.228, 3.661e-6
0.232, 3.614e-6
0.236, 3.661e-6
0.240, 3.661e-6
0.244, 3.520e-6
0.248, 3.520e-6
0.252, 3.461e-6
0.256, 3.520e-6
0.260, 3.296e-6
0.264, 3.320e-6
0.268, 3.296e-6
0.272, 3.308e-6
0.276, 3.284e-6
0.280, 3.308e-6
0.284, 3.402e-6
0.288, 3.120e-6
0.292, 2.978e-6
0.296, 3.002e-6
0.300, 3.061e-6
0.304, 3.296e-6
0.308, 3.014e-6
0.312, 2.931e-6
0.316, 2.908e-6
0.320, 2.955e-6
0.324, 2.813e-6
0.328, 2.943e-6
0.332, 2.919e-6
0.336, 2.802e-6
0.340, 2.813e-6
0.344, 2.896e-6
0.348, 2.861e-6
0.352, 2.884e-6
0.356, 2.814e-6
0.360, 2.790e-6
0.364, 2.813e-6
0.368, 2.896e-6
0.372, 2.778e-6
0.376, 2.755e-6
0.380, 2.861e-6
0.384, 2.778e-6
0.388, 2.660e-6
0.392, 2.802e-6
0.396, 2.825e-6
0.400, 2.919e-6
0.404, 2.708e-6
0.408, 2.637e-6
0.412, 2.613e-6
0.416, 2.696e-6
0.420, 2.613e-6
0.424, 2.649e-6
0.428, 2.555e-6
0.432, 2.507e-6
0.436, 2.625e-6
0.440, 2.507e-6
0.444, 2.578e-6
0.448, 2.708e-6
0.452, 2.507e-6
0.456, 2.566e-6
0.460, 2.519e-6
0.464, 2.507e-6
0.468, 2.401e-6
0.472, 2.496e-6
0.476, 2.496e-6
0.480, 2.496e-6
0.484, 2.649e-6
0.488, 2.496e-6
0.492, 2.660e-6
0.496, 2.602e-6
0.500, 2.625e-6
0.504, 2.566e-6
0.508, 2.425e-6
0.512, 2.637e-6
0.516, 2.566e-6
0.520, 2.602e-6
0.524, 2.590e-6
0.528, 2.625e-6
0.532, 2.872e-6
0.536, 2.825e-6
0.540, 2.943e-6
0.544, 2.990e-6
0.548, 3.155e-6
0.552, 3.178e-6
0.556, 3.473e-6
0.560, 3.649e-6
0.564, 3.826e-6
0.568, 3.991e-6
0.572, 4.367e-6
0.576, 4.850e-6
0.580, 5.239e-6
0.584, 5.898e-6
0.588, 6.639e-6
0.592, 7.616e-6
0.596, 8.805e-6
0.600, 1.014e-5
0.604, 1.203e-5
0.608, 1.443e-5
0.612, 1.726e-5
0.616, 2.053e-5
0.620, 2.393e-5
0.624, 2.759e-5
0.628, 3.082e-5
0.632, 3.397e-5
0.636, 3.674e-5
0.640, 3.855e-5
0.644, 3.990e-5
0.648, 4.073e-5
0.652, 4.124e-5
0.656, 4.164e-5
0.660, 4.147e-5
0.664, 4.064e-5
0.668, 3.958e-5
0.672, 3.845e-5
0.676, 3.752e-5
0.680, 3.685e-5
0.684, 3.614e-5
0.688, 3.570e-5
0.692, 3.528e-5
0.696, 3.486e-5
0.700, 3.457e-5
0.704, 3.416e-5
0.708, 3.370e-5
0.712, 3.322e-5
0.716, 3.281e-5
0.720, 3.216e-5
0.724, 3.170e-5
0.728, 3.114e-5
0.732, 3.065e-5
0.736, 3.020e-5
0.740, 2.964e-5
0.744, 2.935e-5
0.748, 2.901e-5
0.752, 2.868e-5
0.756, 2.822e-5
0.760, 2.808e-5
0.764, 2.782e-5
0.768, 2.756e-5
0.772, 2.724e-5
0.776, 2.715e-5
0.780, 2.715e-5
0.784, 2.696e-5
0.788, 2.679e-5
0.792, 2.642e-5
0.796, 2.617e-5
0.800, 2.596e-5
0.804, 2.570e-5
0.808, 2.546e-5
0.812, 2.509e-5
0.816, 2.466e-5
0.820, 2.438e-5
0.824, 2.385e-5
0.828, 2.361e-5
0.832, 2.312e-5
0.836, 2.240e-5
0.840, 2.183e-5
0.844, 2.146e-5
0.848, 2.094e-5
0.852, 2.052e-5
0.856, 1.982e-5
0.860, 1.938e-5
0.864, 1.874e-5
0.868, 1.834e-5
0.872, 1.766e-5
0.876, 1.719e-5
0.880, 1.685e-5
0.884, 1.637e-5
0.888, 1.586e-5
0.892, 1.554e-5
0.896, 1.506e-5
0.900, 1.470e-5
0.904, 1.440e-5
0.908, 1.416e-5
0.912, 1.397e-5
0.916, 1.361e-5
0.920, 1.334e-5
0.924, 1.310e-5
0.928, 1.306e-5
0.932, 1.263e-5
0.936, 1.241e-5
0.940, 1.243e-5
0.944, 1.220e-5
0.948, 1.192e-5
0.952, 1.177e-5
0.956, 1.177e-5
0.960, 1.155e-5
0.964, 1.152e-5
0.968, 1.132e-5
0.972, 1.143e-5
0.976, 1.128e-5
0.980, 1.123e-5
0.984, 1.115e-5
0.988, 1.130e-5
0.992, 1.110e-5
0.996, 1.110e-5
1.000, 1.111e-5
