July 24, 2025   16:01:09
Differential Pulse Voltammetry
File: e:\Data Source:  Experiment
Instrument Model:  CHI620E
Header: 
Note: 

Init E (V) = 0
Final E (V) = 1
Incr E (V) = 0.004
Amplitude (V) = 0.05
Pulse Width (sec) = 0.05
Sample Width (sec) = 0.0167
Pulse Period (sec) = 0.5
Quiet Time (sec) = 2
Sensitivity (A/V) = 0.01

Results:

Channel 1:
Ep = 0.592V
ip = 6.854e-6A
Ap = 1.006e-6VA

Potential/V, Current/A

0.004, 8.134e-6
0.008, 7.734e-6
0.012, 6.898e-6
0.016, 6.557e-6
0.020, 5.980e-6
0.024, 5.804e-6
0.028, 5.756e-6
0.032, 5.203e-6
0.036, 4.956e-6
0.040, 4.685e-6
0.044, 4.638e-6
0.048, 4.356e-6
0.052, 4.356e-6
0.056, 4.061e-6
0.060, 4.073e-6
0.064, 4.085e-6
0.068, 3.685e-6
0.072, 3.779e-6
0.076, 3.532e-6
0.080, 3.402e-6
0.084, 3.261e-6
0.088, 3.202e-6
0.092, 3.331e-6
0.096, 3.084e-6
0.100, 3.108e-6
0.104, 2.837e-6
0.108, 3.037e-6
0.112, 2.943e-6
0.116, 2.849e-6
0.120, 2.684e-6
0.124, 2.743e-6
0.128, 2.555e-6
0.132, 2.578e-6
0.136, 2.472e-6
0.140, 2.472e-6
0.144, 2.660e-6
0.148, 2.507e-6
0.152, 2.437e-6
0.156, 2.284e-6
0.160, 2.401e-6
0.164, 2.284e-6
0.168, 2.237e-6
0.172, 2.331e-6
0.176, 2.319e-6
0.180, 2.225e-6
0.184, 2.037e-6
0.188, 1.931e-6
0.192, 2.201e-6
0.196, 2.060e-6
0.200, 1.884e-6
0.204, 2.025e-6
0.208, 2.084e-6
0.212, 2.272e-6
0.216, 1.966e-6
0.220, 1.836e-6
0.224, 2.001e-6
0.228, 2.225e-6
0.232, 2.154e-6
0.236, 1.942e-6
0.240, 1.989e-6
0.244, 2.084e-6
0.248, 1.695e-6
0.252, 2.001e-6
0.256, 1.884e-6
0.260, 1.695e-6
0.264, 1.989e-6
0.268, 1.966e-6
0.272, 1.860e-6
0.276, 1.672e-6
0.280, 1.742e-6
0.284, 1.754e-6
0.288, 1.672e-6
0.292, 1.648e-6
0.296, 1.754e-6
0.300, 1.601e-6
0.304, 1.778e-6
0.308, 1.848e-6
0.312, 1.554e-6
0.316, 1.648e-6
0.320, 1.754e-6
0.324, 1.589e-6
0.328, 1.660e-6
0.332, 1.801e-6
0.336, 1.754e-6
0.340, 1.542e-6
0.344, 1.471e-6
0.348, 1.719e-6
0.352, 1.554e-6
0.356, 1.660e-6
0.360, 1.707e-6
0.364, 1.683e-6
0.368, 1.754e-6
0.372, 1.719e-6
0.376, 1.672e-6
0.380, 1.683e-6
0.384, 1.519e-6
0.388, 1.577e-6
0.392, 1.766e-6
0.396, 1.778e-6
0.400, 1.719e-6
0.404, 1.554e-6
0.408, 1.342e-6
0.412, 1.507e-6
0.416, 1.660e-6
0.420, 1.507e-6
0.424, 1.530e-6
0.428, 1.577e-6
0.432, 1.577e-6
0.436, 1.778e-6
0.440, 1.483e-6
0.444, 1.695e-6
0.448, 1.789e-6
0.452, 1.672e-6
0.456, 1.648e-6
0.460, 1.801e-6
0.464, 1.884e-6
0.468, 2.107e-6
0.472, 1.931e-6
0.476, 2.142e-6
0.480, 2.213e-6
0.484, 2.296e-6
0.488, 2.319e-6
0.492, 2.401e-6
0.496, 2.460e-6
0.500, 2.813e-6
0.504, 2.908e-6
0.508, 3.096e-6
0.512, 3.308e-6
0.516, 3.437e-6
0.520, 3.944e-6
0.524, 4.273e-6
0.528, 4.579e-6
0.532, 4.827e-6
0.536, 4.932e-6
0.540, 5.580e-6
0.544, 6.004e-6
0.548, 6.369e-6
0.552, 6.698e-6
0.556, 7.146e-6
0.560, 7.334e-6
0.564, 7.805e-6
0.568, 8.170e-6
0.572, 8.699e-6
0.576, 9.076e-6
0.580, 9.100e-6
0.584, 9.359e-6
0.588, 9.559e-6
0.592, 9.783e-6
0.596, 9.665e-6
0.600, 9.453e-6
0.604, 9.571e-6
0.608, 9.335e-6
0.612, 9.300e-6
0.616, 9.170e-6
0.620, 9.029e-6
0.624, 8.699e-6
0.628, 8.452e-6
0.632, 8.452e-6
0.636, 8.429e-6
0.640, 8.393e-6
0.644, 7.817e-6
0.648, 7.781e-6
0.652, 7.817e-6
0.656, 7.393e-6
0.660, 7.475e-6
0.664, 7.275e-6
0.668, 7.098e-6
0.672, 7.028e-6
0.676, 6.969e-6
0.680, 6.875e-6
0.684, 6.945e-6
0.688, 6.616e-6
0.692, 6.686e-6
0.696, 6.604e-6
0.700, 6.428e-6
0.704, 6.086e-6
0.708, 6.263e-6
0.712, 6.333e-6
0.716, 6.192e-6
0.720, 6.145e-6
0.724, 6.180e-6
0.728, 5.886e-6
0.732, 5.921e-6
0.736, 5.957e-6
0.740, 5.874e-6
0.744, 5.756e-6
0.748, 5.756e-6
0.752, 5.980e-6
0.756, 5.533e-6
0.760, 5.545e-6
0.764, 5.545e-6
0.768, 5.521e-6
0.772, 5.191e-6
0.776, 5.603e-6
0.780, 5.474e-6
0.784, 5.262e-6
0.788, 5.592e-6
0.792, 5.144e-6
0.796, 5.309e-6
0.800, 5.392e-6
0.804, 4.968e-6
0.808, 4.897e-6
0.812, 5.321e-6
0.816, 4.897e-6
0.820, 5.191e-6
0.824, 4.697e-6
0.828, 4.932e-6
0.832, 4.838e-6
0.836, 4.827e-6
0.840, 4.980e-6
0.844, 4.697e-6
0.848, 4.885e-6
0.852, 4.826e-6
0.856, 4.626e-6
0.860, 4.897e-6
0.864, 4.591e-6
0.868, 4.803e-6
0.872, 4.932e-6
0.876, 4.779e-6
0.880, 4.850e-6
0.884, 4.509e-6
0.888, 4.791e-6
0.892, 4.850e-6
0.896, 4.685e-6
0.900, 4.721e-6
0.904, 4.697e-6
0.908, 5.062e-6
0.912, 4.862e-6
0.916, 5.062e-6
0.920, 4.638e-6
0.924, 4.826e-6
0.928, 5.027e-6
0.932, 4.650e-6
0.936, 4.980e-6
0.940, 4.791e-6
0.944, 4.803e-6
0.948, 4.862e-6
0.952, 4.685e-6
0.956, 5.109e-6
0.960, 4.803e-6
0.964, 4.697e-6
0.968, 4.838e-6
0.972, 4.838e-6
0.976, 5.003e-6
0.980, 4.579e-6
0.984, 4.673e-6
0.988, 4.980e-6
0.992, 4.874e-6
0.996, 4.956e-6
1.000, 4.744e-6
