July 23, 2025   20:37:34
Differential Pulse Voltammetry
File: e:\Data Source:  Experiment
Instrument Model:  CHI620E
Header: 
Note: 

Init E (V) = 0
Final E (V) = 1
Incr E (V) = 0.004
Amplitude (V) = 0.05
Pulse Width (sec) = 0.05
Sample Width (sec) = 0.0167
Pulse Period (sec) = 0.5
Quiet Time (sec) = 2
Sensitivity (A/V) = 0.01

Results:

Channel 1:
Ep = 0.564V
ip = 8.930e-6A
Ap = 1.187e-6VA

Potential/V, Current/A

0.004, 6.710e-6
0.008, 6.357e-6
0.012, 6.110e-6
0.016, 5.768e-6
0.020, 5.533e-6
0.024, 5.309e-6
0.028, 5.121e-6
0.032, 4.885e-6
0.036, 4.697e-6
0.040, 4.626e-6
0.044, 4.403e-6
0.048, 4.344e-6
0.052, 4.120e-6
0.056, 4.026e-6
0.060, 4.061e-6
0.064, 3.979e-6
0.068, 3.685e-6
0.072, 3.696e-6
0.076, 3.732e-6
0.080, 3.520e-6
0.084, 3.402e-6
0.088, 3.296e-6
0.092, 3.202e-6
0.096, 3.261e-6
0.100, 3.049e-6
0.104, 3.096e-6
0.108, 2.990e-6
0.112, 2.943e-6
0.116, 2.802e-6
0.120, 2.908e-6
0.124, 2.825e-6
0.128, 2.790e-6
0.132, 2.531e-6
0.136, 2.578e-6
0.140, 2.449e-6
0.144, 2.625e-6
0.148, 2.331e-6
0.152, 2.237e-6
0.156, 2.472e-6
0.160, 2.307e-6
0.164, 2.296e-6
0.168, 2.390e-6
0.172, 2.307e-6
0.176, 2.142e-6
0.180, 2.260e-6
0.184, 2.154e-6
0.188, 2.178e-6
0.192, 2.131e-6
0.196, 1.848e-6
0.200, 2.095e-6
0.204, 2.060e-6
0.208, 1.978e-6
0.212, 1.989e-6
0.216, 1.836e-6
0.220, 1.942e-6
0.224, 1.966e-6
0.228, 1.707e-6
0.232, 1.884e-6
0.236, 1.742e-6
0.240, 1.672e-6
0.244, 1.848e-6
0.248, 1.778e-6
0.252, 1.730e-6
0.256, 1.895e-6
0.260, 1.613e-6
0.264, 1.683e-6
0.268, 1.778e-6
0.272, 1.742e-6
0.276, 1.754e-6
0.280, 1.672e-6
0.284, 1.601e-6
0.288, 1.636e-6
0.292, 1.613e-6
0.296, 1.577e-6
0.300, 1.636e-6
0.304, 1.672e-6
0.308, 1.625e-6
0.312, 1.342e-6
0.316, 1.601e-6
0.320, 1.460e-6
0.324, 1.483e-6
0.328, 1.436e-6
0.332, 1.507e-6
0.336, 1.577e-6
0.340, 1.448e-6
0.344, 1.413e-6
0.348, 1.471e-6
0.352, 1.577e-6
0.356, 1.401e-6
0.360, 1.483e-6
0.364, 1.625e-6
0.368, 1.495e-6
0.372, 1.483e-6
0.376, 1.354e-6
0.380, 1.495e-6
0.384, 1.577e-6
0.388, 1.460e-6
0.392, 1.401e-6
0.396, 1.389e-6
0.400, 1.471e-6
0.404, 1.424e-6
0.408, 1.424e-6
0.412, 1.589e-6
0.416, 1.471e-6
0.420, 1.436e-6
0.424, 1.519e-6
0.428, 1.483e-6
0.432, 1.613e-6
0.436, 1.707e-6
0.440, 1.648e-6
0.444, 1.754e-6
0.448, 1.860e-6
0.452, 1.872e-6
0.456, 1.989e-6
0.460, 2.260e-6
0.464, 2.366e-6
0.468, 2.496e-6
0.472, 2.778e-6
0.476, 3.061e-6
0.480, 3.320e-6
0.484, 3.508e-6
0.488, 3.944e-6
0.492, 4.344e-6
0.496, 4.850e-6
0.500, 5.439e-6
0.504, 6.039e-6
0.508, 6.698e-6
0.512, 7.275e-6
0.516, 7.769e-6
0.520, 8.499e-6
0.524, 9.006e-6
0.528, 9.535e-6
0.532, 9.959e-6
0.536, 1.057e-5
0.540, 1.094e-5
0.544, 1.148e-5
0.548, 1.171e-5
0.552, 1.197e-5
0.556, 1.227e-5
0.560, 1.231e-5
0.564, 1.238e-5
0.568, 1.220e-5
0.572, 1.218e-5
0.576, 1.216e-5
0.580, 1.174e-5
0.584, 1.150e-5
0.588, 1.140e-5
0.592, 1.105e-5
0.596, 1.068e-5
0.600, 1.045e-5
0.604, 1.017e-5
0.608, 1.003e-5
0.612, 9.476e-6
0.616, 9.323e-6
0.620, 9.123e-6
0.624, 8.876e-6
0.628, 8.711e-6
0.632, 8.488e-6
0.636, 8.452e-6
0.640, 8.182e-6
0.644, 7.981e-6
0.648, 7.840e-6
0.652, 7.899e-6
0.656, 7.817e-6
0.660, 7.628e-6
0.664, 7.605e-6
0.668, 7.487e-6
0.672, 7.463e-6
0.676, 7.287e-6
0.680, 7.193e-6
0.684, 7.169e-6
0.688, 7.193e-6
0.692, 6.993e-6
0.696, 6.993e-6
0.700, 6.993e-6
0.704, 6.910e-6
0.708, 6.769e-6
0.712, 6.804e-6
0.716, 6.757e-6
0.720, 6.663e-6
0.724, 6.639e-6
0.728, 6.663e-6
0.732, 6.675e-6
0.736, 6.475e-6
0.740, 6.463e-6
0.744, 6.357e-6
0.748, 6.439e-6
0.752, 6.451e-6
0.756, 6.263e-6
0.760, 6.074e-6
0.764, 6.263e-6
0.768, 6.098e-6
0.772, 5.968e-6
0.776, 6.004e-6
0.780, 6.110e-6
0.784, 6.039e-6
0.788, 5.992e-6
0.792, 5.804e-6
0.796, 5.910e-6
0.800, 5.686e-6
0.804, 5.709e-6
0.808, 5.792e-6
0.812, 5.686e-6
0.816, 5.780e-6
0.820, 5.592e-6
0.824, 5.439e-6
0.828, 5.321e-6
0.832, 5.356e-6
0.836, 5.344e-6
0.840, 5.321e-6
0.844, 5.403e-6
0.848, 5.191e-6
0.852, 5.250e-6
0.856, 5.191e-6
0.860, 5.109e-6
0.864, 5.203e-6
0.868, 5.085e-6
0.872, 5.191e-6
0.876, 5.239e-6
0.880, 5.203e-6
0.884, 5.227e-6
0.888, 5.121e-6
0.892, 5.191e-6
0.896, 5.309e-6
0.900, 5.109e-6
0.904, 5.133e-6
0.908, 5.250e-6
0.912, 5.286e-6
0.916, 5.274e-6
0.920, 5.286e-6
0.924, 5.321e-6
0.928, 5.250e-6
0.932, 5.368e-6
0.936, 5.286e-6
0.940, 5.403e-6
0.944, 5.392e-6
0.948, 5.380e-6
0.952, 5.250e-6
0.956, 5.227e-6
0.960, 5.050e-6
0.964, 5.203e-6
0.968, 5.097e-6
0.972, 5.227e-6
0.976, 5.168e-6
0.980, 5.074e-6
0.984, 5.027e-6
0.988, 5.144e-6
0.992, 5.121e-6
0.996, 5.168e-6
1.000, 5.309e-6
