July 23, 2025   20:31:04
Differential Pulse Voltammetry
File: e:\Data Source:  Experiment
Instrument Model:  CHI620E
Header: 
Note: 

Init E (V) = 0
Final E (V) = 1
Incr E (V) = 0.004
Amplitude (V) = 0.05
Pulse Width (sec) = 0.05
Sample Width (sec) = 0.0167
Pulse Period (sec) = 0.5
Quiet Time (sec) = 2
Sensitivity (A/V) = 0.01

Results:

Channel 1:
Ep = 0.560V
ip = 8.990e-6A
Ap = 1.209e-6VA

Potential/V, Current/A

0.004, 6.486e-6
0.008, 6.145e-6
0.012, 5.815e-6
0.016, 5.356e-6
0.020, 5.239e-6
0.024, 4.968e-6
0.028, 4.791e-6
0.032, 4.685e-6
0.036, 4.532e-6
0.040, 4.261e-6
0.044, 4.250e-6
0.048, 4.085e-6
0.052, 3.897e-6
0.056, 3.755e-6
0.060, 3.685e-6
0.064, 3.555e-6
0.068, 3.496e-6
0.072, 3.473e-6
0.076, 3.414e-6
0.080, 3.273e-6
0.084, 3.249e-6
0.088, 3.108e-6
0.092, 2.990e-6
0.096, 2.849e-6
0.100, 2.872e-6
0.104, 2.802e-6
0.108, 2.849e-6
0.112, 2.708e-6
0.116, 2.637e-6
0.120, 2.507e-6
0.124, 2.460e-6
0.128, 2.460e-6
0.132, 2.366e-6
0.136, 2.507e-6
0.140, 2.460e-6
0.144, 2.366e-6
0.148, 2.248e-6
0.152, 2.095e-6
0.156, 2.260e-6
0.160, 2.225e-6
0.164, 2.095e-6
0.168, 2.095e-6
0.172, 2.154e-6
0.176, 2.072e-6
0.180, 2.072e-6
0.184, 1.942e-6
0.188, 1.848e-6
0.192, 1.931e-6
0.196, 1.825e-6
0.200, 1.778e-6
0.204, 1.860e-6
0.208, 1.942e-6
0.212, 1.766e-6
0.216, 1.707e-6
0.220, 1.801e-6
0.224, 1.695e-6
0.228, 1.707e-6
0.232, 1.801e-6
0.236, 1.554e-6
0.240, 1.778e-6
0.244, 1.660e-6
0.248, 1.601e-6
0.252, 1.577e-6
0.256, 1.554e-6
0.260, 1.424e-6
0.264, 1.542e-6
0.268, 1.542e-6
0.272, 1.601e-6
0.276, 1.424e-6
0.280, 1.448e-6
0.284, 1.519e-6
0.288, 1.483e-6
0.292, 1.460e-6
0.296, 1.436e-6
0.300, 1.483e-6
0.304, 1.507e-6
0.308, 1.448e-6
0.312, 1.366e-6
0.316, 1.248e-6
0.320, 1.295e-6
0.324, 1.377e-6
0.328, 1.413e-6
0.332, 1.424e-6
0.336, 1.401e-6
0.340, 1.189e-6
0.344, 1.413e-6
0.348, 1.366e-6
0.352, 1.330e-6
0.356, 1.271e-6
0.360, 1.401e-6
0.364, 1.507e-6
0.368, 1.354e-6
0.372, 1.389e-6
0.376, 1.342e-6
0.380, 1.295e-6
0.384, 1.377e-6
0.388, 1.224e-6
0.392, 1.271e-6
0.396, 1.401e-6
0.400, 1.318e-6
0.404, 1.413e-6
0.408, 1.224e-6
0.412, 1.366e-6
0.416, 1.366e-6
0.420, 1.342e-6
0.424, 1.377e-6
0.428, 1.389e-6
0.432, 1.542e-6
0.436, 1.566e-6
0.440, 1.648e-6
0.444, 1.613e-6
0.448, 1.589e-6
0.452, 1.742e-6
0.456, 1.966e-6
0.460, 2.060e-6
0.464, 2.178e-6
0.468, 2.437e-6
0.472, 2.531e-6
0.476, 2.967e-6
0.480, 3.167e-6
0.484, 3.449e-6
0.488, 3.791e-6
0.492, 4.379e-6
0.496, 4.909e-6
0.500, 5.427e-6
0.504, 5.933e-6
0.508, 6.698e-6
0.512, 7.263e-6
0.516, 7.781e-6
0.520, 8.264e-6
0.524, 8.853e-6
0.528, 9.382e-6
0.532, 9.794e-6
0.536, 1.041e-5
0.540, 1.076e-5
0.544, 1.120e-5
0.548, 1.158e-5
0.552, 1.176e-5
0.556, 1.202e-5
0.560, 1.215e-5
0.564, 1.210e-5
0.568, 1.192e-5
0.572, 1.180e-5
0.576, 1.175e-5
0.580, 1.147e-5
0.584, 1.116e-5
0.588, 1.095e-5
0.592, 1.064e-5
0.596, 1.043e-5
0.600, 1.010e-5
0.604, 9.806e-6
0.608, 9.582e-6
0.612, 9.323e-6
0.616, 9.088e-6
0.620, 8.794e-6
0.624, 8.676e-6
0.628, 8.511e-6
0.632, 8.123e-6
0.636, 8.087e-6
0.640, 7.958e-6
0.644, 7.734e-6
0.648, 7.699e-6
0.652, 7.511e-6
0.656, 7.393e-6
0.660, 7.322e-6
0.664, 7.193e-6
0.668, 7.122e-6
0.672, 7.134e-6
0.676, 6.898e-6
0.680, 6.945e-6
0.684, 7.028e-6
0.688, 6.910e-6
0.692, 6.639e-6
0.696, 6.675e-6
0.700, 6.686e-6
0.704, 6.557e-6
0.708, 6.510e-6
0.712, 6.357e-6
0.716, 6.369e-6
0.720, 6.357e-6
0.724, 6.251e-6
0.728, 6.204e-6
0.732, 6.180e-6
0.736, 6.133e-6
0.740, 6.074e-6
0.744, 5.992e-6
0.748, 5.957e-6
0.752, 6.074e-6
0.756, 6.015e-6
0.760, 5.910e-6
0.764, 5.945e-6
0.768, 5.756e-6
0.772, 5.556e-6
0.776, 5.792e-6
0.780, 5.721e-6
0.784, 5.698e-6
0.788, 5.603e-6
0.792, 5.533e-6
0.796, 5.498e-6
0.800, 5.462e-6
0.804, 5.556e-6
0.808, 5.321e-6
0.812, 5.297e-6
0.816, 5.239e-6
0.820, 5.133e-6
0.824, 5.180e-6
0.828, 5.168e-6
0.832, 5.097e-6
0.836, 4.909e-6
0.840, 5.085e-6
0.844, 5.109e-6
0.848, 4.980e-6
0.852, 4.897e-6
0.856, 4.885e-6
0.860, 4.838e-6
0.864, 4.909e-6
0.868, 4.838e-6
0.872, 4.779e-6
0.876, 4.779e-6
0.880, 4.744e-6
0.884, 4.885e-6
0.888, 4.768e-6
0.892, 4.850e-6
0.896, 4.791e-6
0.900, 4.744e-6
0.904, 4.827e-6
0.908, 4.991e-6
0.912, 4.897e-6
0.916, 4.909e-6
0.920, 5.038e-6
0.924, 5.003e-6
0.928, 4.980e-6
0.932, 4.874e-6
0.936, 4.991e-6
0.940, 4.944e-6
0.944, 4.932e-6
0.948, 4.980e-6
0.952, 4.803e-6
0.956, 4.850e-6
0.960, 4.838e-6
0.964, 4.779e-6
0.968, 4.862e-6
0.972, 4.815e-6
0.976, 4.850e-6
0.980, 4.744e-6
0.984, 4.791e-6
0.988, 4.874e-6
0.992, 4.768e-6
0.996, 4.556e-6
1.000, 4.721e-6
