July 25, 2025   13:21:40
Differential Pulse Voltammetry
File: e:\Data Source:  Experiment
Instrument Model:  CHI620E
Header: 
Note: 

Init E (V) = 0
Final E (V) = 1
Incr E (V) = 0.004
Amplitude (V) = 0.05
Pulse Width (sec) = 0.05
Sample Width (sec) = 0.0167
Pulse Period (sec) = 0.5
Quiet Time (sec) = 2
Sensitivity (A/V) = 0.01

Results:

Channel 1:
Ep = 0.700V
ip = 2.307e-5A
Ap = 2.197e-6VA

Potential/V, Current/A

0.004, 9.323e-6
0.008, 8.311e-6
0.012, 7.923e-6
0.016, 7.511e-6
0.020, 6.981e-6
0.024, 6.781e-6
0.028, 6.427e-6
0.032, 6.510e-6
0.036, 6.416e-6
0.040, 6.369e-6
0.044, 6.180e-6
0.048, 6.133e-6
0.052, 6.169e-6
0.056, 6.227e-6
0.060, 6.027e-6
0.064, 6.086e-6
0.068, 5.792e-6
0.072, 5.615e-6
0.076, 5.792e-6
0.080, 5.698e-6
0.084, 5.627e-6
0.088, 5.333e-6
0.092, 5.521e-6
0.096, 5.380e-6
0.100, 5.380e-6
0.104, 5.368e-6
0.108, 5.380e-6
0.112, 5.486e-6
0.116, 5.333e-6
0.120, 4.991e-6
0.124, 5.121e-6
0.128, 5.062e-6
0.132, 5.168e-6
0.136, 5.085e-6
0.140, 5.168e-6
0.144, 5.027e-6
0.148, 5.027e-6
0.152, 4.921e-6
0.156, 5.050e-6
0.160, 5.133e-6
0.164, 5.038e-6
0.168, 4.874e-6
0.172, 4.827e-6
0.176, 4.921e-6
0.180, 4.885e-6
0.184, 4.779e-6
0.188, 4.744e-6
0.192, 4.768e-6
0.196, 4.662e-6
0.200, 4.556e-6
0.204, 4.579e-6
0.208, 4.662e-6
0.212, 4.426e-6
0.216, 4.367e-6
0.220, 4.332e-6
0.224, 4.403e-6
0.228, 4.344e-6
0.232, 4.226e-6
0.236, 4.344e-6
0.240, 4.332e-6
0.244, 4.167e-6
0.248, 4.085e-6
0.252, 4.203e-6
0.256, 3.955e-6
0.260, 3.897e-6
0.264, 3.944e-6
0.268, 3.955e-6
0.272, 3.944e-6
0.276, 3.802e-6
0.280, 3.708e-6
0.284, 3.649e-6
0.288, 3.579e-6
0.292, 3.508e-6
0.296, 3.732e-6
0.300, 3.579e-6
0.304, 3.602e-6
0.308, 3.402e-6
0.312, 3.284e-6
0.316, 3.414e-6
0.320, 3.390e-6
0.324, 3.131e-6
0.328, 3.237e-6
0.332, 3.226e-6
0.336, 3.202e-6
0.340, 3.237e-6
0.344, 3.167e-6
0.348, 3.155e-6
0.352, 3.131e-6
0.356, 2.872e-6
0.360, 2.931e-6
0.364, 3.014e-6
0.368, 2.978e-6
0.372, 3.143e-6
0.376, 2.861e-6
0.380, 2.955e-6
0.384, 2.896e-6
0.388, 2.943e-6
0.392, 2.849e-6
0.396, 3.025e-6
0.400, 2.955e-6
0.404, 2.896e-6
0.408, 2.825e-6
0.412, 2.813e-6
0.416, 2.814e-6
0.420, 2.825e-6
0.424, 2.849e-6
0.428, 2.708e-6
0.432, 2.766e-6
0.436, 2.778e-6
0.440, 2.743e-6
0.444, 2.861e-6
0.448, 2.849e-6
0.452, 2.672e-6
0.456, 2.719e-6
0.460, 2.708e-6
0.464, 2.696e-6
0.468, 2.766e-6
0.472, 2.672e-6
0.476, 2.708e-6
0.480, 2.755e-6
0.484, 2.684e-6
0.488, 2.672e-6
0.492, 2.602e-6
0.496, 2.766e-6
0.500, 2.719e-6
0.504, 2.625e-6
0.508, 2.602e-6
0.512, 2.507e-6
0.516, 2.660e-6
0.520, 2.625e-6
0.524, 2.496e-6
0.528, 2.637e-6
0.532, 2.507e-6
0.536, 2.602e-6
0.540, 2.613e-6
0.544, 2.684e-6
0.548, 2.555e-6
0.552, 2.507e-6
0.556, 2.625e-6
0.560, 2.731e-6
0.564, 2.637e-6
0.568, 2.649e-6
0.572, 2.755e-6
0.576, 2.955e-6
0.580, 2.872e-6
0.584, 2.955e-6
0.588, 3.120e-6
0.592, 3.143e-6
0.596, 3.261e-6
0.600, 3.379e-6
0.604, 3.685e-6
0.608, 3.979e-6
0.612, 4.108e-6
0.616, 4.344e-6
0.620, 4.697e-6
0.624, 5.262e-6
0.628, 5.627e-6
0.632, 6.392e-6
0.636, 7.040e-6
0.640, 8.064e-6
0.644, 9.088e-6
0.648, 1.071e-5
0.652, 1.244e-5
0.656, 1.442e-5
0.660, 1.676e-5
0.664, 1.959e-5
0.668, 2.247e-5
0.672, 2.545e-5
0.676, 2.848e-5
0.680, 3.081e-5
0.684, 3.291e-5
0.688, 3.450e-5
0.692, 3.565e-5
0.696, 3.619e-5
0.700, 3.652e-5
0.704, 3.643e-5
0.708, 3.594e-5
0.712, 3.546e-5
0.716, 3.499e-5
0.720, 3.424e-5
0.724, 3.347e-5
0.728, 3.253e-5
0.732, 3.181e-5
0.736, 3.131e-5
0.740, 3.072e-5
0.744, 2.995e-5
0.748, 2.961e-5
0.752, 2.919e-5
0.756, 2.877e-5
0.760, 2.835e-5
0.764, 2.808e-5
0.768, 2.781e-5
0.772, 2.750e-5
0.776, 2.741e-5
0.780, 2.712e-5
0.784, 2.692e-5
0.788, 2.653e-5
0.792, 2.623e-5
0.796, 2.592e-5
0.800, 2.563e-5
0.804, 2.545e-5
0.808, 2.517e-5
0.812, 2.489e-5
0.816, 2.480e-5
0.820, 2.451e-5
0.824, 2.412e-5
0.828, 2.413e-5
0.832, 2.394e-5
0.836, 2.387e-5
0.840, 2.380e-5
0.844, 2.367e-5
0.848, 2.378e-5
0.852, 2.374e-5
0.856, 2.367e-5
0.860, 2.376e-5
0.864, 2.379e-5
0.868, 2.371e-5
0.872, 2.381e-5
0.876, 2.398e-5
0.880, 2.379e-5
0.884, 2.398e-5
0.888, 2.386e-5
0.892, 2.410e-5
0.896, 2.410e-5
0.900, 2.393e-5
0.904, 2.414e-5
0.908, 2.410e-5
0.912, 2.409e-5
0.916, 2.410e-5
0.920, 2.401e-5
0.924, 2.379e-5
0.928, 2.364e-5
0.932, 2.352e-5
0.936, 2.338e-5
0.940, 2.298e-5
0.944, 2.273e-5
0.948, 2.268e-5
0.952, 2.207e-5
0.956, 2.179e-5
0.960, 2.146e-5
0.964, 2.078e-5
0.968, 2.045e-5
0.972, 1.982e-5
0.976, 1.924e-5
0.980, 1.896e-5
0.984, 1.832e-5
0.988, 1.787e-5
0.992, 1.725e-5
0.996, 1.669e-5
1.000, 1.603e-5
