July 23, 2025   18:44:44
Differential Pulse Voltammetry
File: e:\Data Source:  Experiment
Instrument Model:  CHI620E
Header: 
Note: 

Init E (V) = 0
Final E (V) = 1
Incr E (V) = 0.004
Amplitude (V) = 0.05
Pulse Width (sec) = 0.05
Sample Width (sec) = 0.0167
Pulse Period (sec) = 0.5
Quiet Time (sec) = 2
Sensitivity (A/V) = 0.01

Results:

Channel 1:
Ep = 0.576V
ip = 8.104e-6A
Ap = 1.195e-6VA

Potential/V, Current/A

0.004, 7.817e-6
0.008, 7.252e-6
0.012, 6.357e-6
0.016, 5.592e-6
0.020, 5.121e-6
0.024, 4.732e-6
0.028, 4.367e-6
0.032, 4.061e-6
0.036, 3.755e-6
0.040, 3.508e-6
0.044, 3.237e-6
0.048, 3.178e-6
0.052, 3.002e-6
0.056, 2.696e-6
0.060, 2.837e-6
0.064, 2.566e-6
0.068, 2.331e-6
0.072, 2.354e-6
0.076, 2.296e-6
0.080, 2.072e-6
0.084, 2.154e-6
0.088, 1.978e-6
0.092, 1.848e-6
0.096, 1.931e-6
0.100, 1.848e-6
0.104, 1.742e-6
0.108, 1.672e-6
0.112, 1.813e-6
0.116, 1.542e-6
0.120, 1.413e-6
0.124, 1.601e-6
0.128, 1.554e-6
0.132, 1.460e-6
0.136, 1.471e-6
0.140, 1.471e-6
0.144, 1.424e-6
0.148, 1.366e-6
0.152, 1.260e-6
0.156, 1.330e-6
0.160, 1.377e-6
0.164, 1.330e-6
0.168, 1.295e-6
0.172, 1.342e-6
0.176, 1.236e-6
0.180, 1.165e-6
0.184, 1.059e-6
0.188, 1.118e-6
0.192, 1.201e-6
0.196, 1.177e-6
0.200, 1.201e-6
0.204, 1.271e-6
0.208, 1.201e-6
0.212, 1.071e-6
0.216, 1.107e-6
0.220, 1.095e-6
0.224, 1.071e-6
0.228, 1.001e-6
0.232, 1.024e-6
0.236, 1.036e-6
0.240, 9.182e-7
0.244, 9.888e-7
0.248, 9.888e-7
0.252, 1.012e-6
0.256, 1.012e-6
0.260, 9.418e-7
0.264, 8.829e-7
0.268, 1.048e-6
0.272, 1.024e-6
0.276, 1.048e-6
0.280, 9.888e-7
0.284, 1.095e-6
0.288, 1.059e-6
0.292, 1.036e-6
0.296, 8.476e-7
0.300, 9.064e-7
0.304, 8.476e-7
0.308, 8.358e-7
0.312, 9.418e-7
0.316, 8.711e-7
0.320, 9.182e-7
0.324, 9.418e-7
0.328, 8.005e-7
0.332, 9.418e-7
0.336, 7.416e-7
0.340, 7.770e-7
0.344, 9.064e-7
0.348, 8.829e-7
0.352, 9.418e-7
0.356, 9.535e-7
0.360, 7.887e-7
0.364, 9.535e-7
0.368, 8.947e-7
0.372, 9.888e-7
0.376, 8.711e-7
0.380, 9.771e-7
0.384, 1.107e-6
0.388, 9.653e-7
0.392, 1.071e-6
0.396, 1.071e-6
0.400, 1.083e-6
0.404, 1.107e-6
0.408, 1.107e-6
0.412, 1.095e-6
0.416, 1.201e-6
0.420, 1.130e-6
0.424, 1.154e-6
0.428, 1.248e-6
0.432, 1.189e-6
0.436, 1.083e-6
0.440, 1.095e-6
0.444, 1.295e-6
0.448, 1.448e-6
0.452, 1.448e-6
0.456, 1.636e-6
0.460, 1.577e-6
0.464, 1.801e-6
0.468, 1.989e-6
0.472, 2.072e-6
0.476, 2.425e-6
0.480, 2.472e-6
0.484, 2.778e-6
0.488, 3.025e-6
0.492, 3.567e-6
0.496, 3.885e-6
0.500, 4.167e-6
0.504, 4.579e-6
0.508, 5.133e-6
0.512, 5.839e-6
0.516, 6.427e-6
0.520, 7.028e-6
0.524, 7.687e-6
0.528, 8.299e-6
0.532, 8.770e-6
0.536, 9.382e-6
0.540, 9.806e-6
0.544, 1.010e-5
0.548, 1.057e-5
0.552, 1.082e-5
0.556, 1.114e-5
0.560, 1.123e-5
0.564, 1.129e-5
0.568, 1.137e-5
0.572, 1.152e-5
0.576, 1.158e-5
0.580, 1.142e-5
0.584, 1.147e-5
0.588, 1.141e-5
0.592, 1.137e-5
0.596, 1.130e-5
0.600, 1.124e-5
0.604, 1.109e-5
0.608, 1.088e-5
0.612, 1.077e-5
0.616, 1.058e-5
0.620, 1.024e-5
0.624, 1.009e-5
0.628, 9.841e-6
0.632, 9.606e-6
0.636, 9.524e-6
0.640, 9.265e-6
0.644, 9.029e-6
0.648, 9.076e-6
0.652, 8.829e-6
0.656, 8.664e-6
0.660, 8.405e-6
0.664, 8.323e-6
0.668, 8.170e-6
0.672, 7.958e-6
0.676, 7.805e-6
0.680, 7.711e-6
0.684, 7.687e-6
0.688, 7.416e-6
0.692, 7.499e-6
0.696, 7.157e-6
0.700, 7.110e-6
0.704, 7.193e-6
0.708, 6.993e-6
0.712, 6.910e-6
0.716, 6.804e-6
0.720, 6.722e-6
0.724, 6.616e-6
0.728, 6.451e-6
0.732, 6.545e-6
0.736, 6.416e-6
0.740, 6.333e-6
0.744, 6.169e-6
0.748, 6.121e-6
0.752, 6.121e-6
0.756, 5.992e-6
0.760, 5.933e-6
0.764, 6.004e-6
0.768, 5.957e-6
0.772, 5.804e-6
0.776, 5.780e-6
0.780, 5.815e-6
0.784, 5.827e-6
0.788, 5.757e-6
0.792, 5.768e-6
0.796, 5.756e-6
0.800, 5.580e-6
0.804, 5.439e-6
0.808, 5.462e-6
0.812, 5.498e-6
0.816, 5.651e-6
0.820, 5.368e-6
0.824, 5.415e-6
0.828, 5.250e-6
0.832, 5.227e-6
0.836, 5.203e-6
0.840, 5.274e-6
0.844, 5.074e-6
0.848, 5.133e-6
0.852, 5.121e-6
0.856, 5.085e-6
0.860, 5.085e-6
0.864, 5.038e-6
0.868, 5.003e-6
0.872, 4.932e-6
0.876, 5.050e-6
0.880, 5.038e-6
0.884, 4.956e-6
0.888, 5.015e-6
0.892, 4.921e-6
0.896, 5.015e-6
0.900, 4.850e-6
0.904, 4.838e-6
0.908, 5.027e-6
0.912, 5.133e-6
0.916, 4.991e-6
0.920, 4.980e-6
0.924, 4.885e-6
0.928, 4.968e-6
0.932, 4.991e-6
0.936, 5.038e-6
0.940, 4.980e-6
0.944, 5.027e-6
0.948, 5.027e-6
0.952, 5.133e-6
0.956, 4.862e-6
0.960, 4.991e-6
0.964, 4.921e-6
0.968, 5.074e-6
0.972, 4.991e-6
0.976, 5.003e-6
0.980, 5.027e-6
0.984, 4.980e-6
0.988, 5.121e-6
0.992, 5.109e-6
0.996, 5.168e-6
1.000, 5.180e-6
