July 23, 2025   18:42:33
Differential Pulse Voltammetry
File: e:\Data Source:  Experiment
Instrument Model:  CHI620E
Header: 
Note: 

Init E (V) = 0
Final E (V) = 1
Incr E (V) = 0.004
Amplitude (V) = 0.05
Pulse Width (sec) = 0.05
Sample Width (sec) = 0.0167
Pulse Period (sec) = 0.5
Quiet Time (sec) = 2
Sensitivity (A/V) = 0.01

Results:

Channel 1:
Ep = 0.624V
ip = 1.138e-5A
Ap = 1.232e-6VA

Potential/V, Current/A

0.004, 2.707e-7
0.008, 3.885e-7
0.012, 4.473e-7
0.016, 2.237e-7
0.020, 2.825e-7
0.024, 1.530e-7
0.028, 3.061e-7
0.032, 3.178e-7
0.036, 2.237e-7
0.040, 2.472e-7
0.044, 3.414e-7
0.048, 3.649e-7
0.052, 2.825e-7
0.056, 2.943e-7
0.060, 3.767e-7
0.064, 2.707e-7
0.068, 3.061e-7
0.072, 2.825e-7
0.076, 2.472e-7
0.080, 3.414e-7
0.084, 3.532e-7
0.088, 3.532e-7
0.092, 3.296e-7
0.096, 2.825e-7
0.100, 3.296e-7
0.104, 2.943e-7
0.108, 2.590e-7
0.112, 2.472e-7
0.116, 2.001e-7
0.120, 1.413e-7
0.124, 2.943e-7
0.128, 2.590e-7
0.132, 2.119e-7
0.136, 2.590e-7
0.140, 2.237e-7
0.144, 2.943e-7
0.148, 1.177e-7
0.152, 3.296e-7
0.156, 3.178e-7
0.160, 3.061e-7
0.164, 3.414e-7
0.168, 2.354e-7
0.172, 3.649e-7
0.176, 2.708e-7
0.180, 1.884e-7
0.184, 2.590e-7
0.188, 3.296e-7
0.192, 2.472e-7
0.196, 2.590e-7
0.200, 2.943e-7
0.204, 2.590e-7
0.208, 3.178e-7
0.212, 1.884e-7
0.216, 2.943e-7
0.220, 2.708e-7
0.224, 3.414e-7
0.228, 1.884e-7
0.232, 2.943e-7
0.236, 2.119e-7
0.240, 3.414e-7
0.244, 3.296e-7
0.248, 2.708e-7
0.252, 2.825e-7
0.256, 3.649e-7
0.260, 2.237e-7
0.264, 2.472e-7
0.268, 3.767e-7
0.272, 3.296e-7
0.276, 2.825e-7
0.280, 2.825e-7
0.284, 3.296e-7
0.288, 2.119e-7
0.292, 3.885e-7
0.296, 2.237e-7
0.300, 3.061e-7
0.304, 4.002e-7
0.308, 4.120e-7
0.312, 4.120e-7
0.316, 3.532e-7
0.320, 4.002e-7
0.324, 2.237e-7
0.328, 3.649e-7
0.332, 4.002e-7
0.336, 2.943e-7
0.340, 2.708e-7
0.344, 4.120e-7
0.348, 4.238e-7
0.352, 3.885e-7
0.356, 2.237e-7
0.360, 3.061e-7
0.364, 4.826e-7
0.368, 4.473e-7
0.372, 4.356e-7
0.376, 4.473e-7
0.380, 4.473e-7
0.384, 5.651e-7
0.388, 4.356e-7
0.392, 4.591e-7
0.396, 4.944e-7
0.400, 4.944e-7
0.404, 4.591e-7
0.408, 6.004e-7
0.412, 6.004e-7
0.416, 4.944e-7
0.420, 5.415e-7
0.424, 4.709e-7
0.428, 6.357e-7
0.432, 5.297e-7
0.436, 5.062e-7
0.440, 5.297e-7
0.444, 5.062e-7
0.448, 6.828e-7
0.452, 4.120e-7
0.456, 6.592e-7
0.460, 5.297e-7
0.464, 6.710e-7
0.468, 6.357e-7
0.472, 7.534e-7
0.476, 6.239e-7
0.480, 6.945e-7
0.484, 7.181e-7
0.488, 8.711e-7
0.492, 6.592e-7
0.496, 7.063e-7
0.500, 7.181e-7
0.504, 6.828e-7
0.508, 7.887e-7
0.512, 9.535e-7
0.516, 7.181e-7
0.520, 7.534e-7
0.524, 8.947e-7
0.528, 1.036e-6
0.532, 9.888e-7
0.536, 1.012e-6
0.540, 1.012e-6
0.544, 1.048e-6
0.548, 1.213e-6
0.552, 1.354e-6
0.556, 1.342e-6
0.560, 1.460e-6
0.564, 1.884e-6
0.568, 1.989e-6
0.572, 2.343e-6
0.576, 2.578e-6
0.580, 2.790e-6
0.584, 3.072e-6
0.588, 3.473e-6
0.592, 4.261e-6
0.596, 4.980e-6
0.600, 6.345e-6
0.604, 8.146e-6
0.608, 9.924e-6
0.612, 1.162e-5
0.616, 1.294e-5
0.620, 1.353e-5
0.624, 1.370e-5
0.628, 1.348e-5
0.632, 1.311e-5
0.636, 1.290e-5
0.640, 1.253e-5
0.644, 1.204e-5
0.648, 1.172e-5
0.652, 1.140e-5
0.656, 1.097e-5
0.660, 1.076e-5
0.664, 1.037e-5
0.668, 1.016e-5
0.672, 9.794e-6
0.676, 9.512e-6
0.680, 9.276e-6
0.684, 9.182e-6
0.688, 8.841e-6
0.692, 8.605e-6
0.696, 8.488e-6
0.700, 8.358e-6
0.704, 8.240e-6
0.708, 8.017e-6
0.712, 7.758e-6
0.716, 7.781e-6
0.720, 7.569e-6
0.724, 7.499e-6
0.728, 7.357e-6
0.732, 7.275e-6
0.736, 7.263e-6
0.740, 7.216e-6
0.744, 6.934e-6
0.748, 6.910e-6
0.752, 6.745e-6
0.756, 6.781e-6
0.760, 6.710e-6
0.764, 6.710e-6
0.768, 6.628e-6
0.772, 6.404e-6
0.776, 6.486e-6
0.780, 6.557e-6
0.784, 6.498e-6
0.788, 6.392e-6
0.792, 6.251e-6
0.796, 6.286e-6
0.800, 6.239e-6
0.804, 6.015e-6
0.808, 5.957e-6
0.812, 6.074e-6
0.816, 6.039e-6
0.820, 6.086e-6
0.824, 5.756e-6
0.828, 5.780e-6
0.832, 5.674e-6
0.836, 5.627e-6
0.840, 5.674e-6
0.844, 5.498e-6
0.848, 5.556e-6
0.852, 5.486e-6
0.856, 5.356e-6
0.860, 5.450e-6
0.864, 5.439e-6
0.868, 5.403e-6
0.872, 5.250e-6
0.876, 5.344e-6
0.880, 5.297e-6
0.884, 5.250e-6
0.888, 5.133e-6
0.892, 5.227e-6
0.896, 5.262e-6
0.900, 5.062e-6
0.904, 5.227e-6
0.908, 5.062e-6
0.912, 5.203e-6
0.916, 5.121e-6
0.920, 5.133e-6
0.924, 5.156e-6
0.928, 5.074e-6
0.932, 5.180e-6
0.936, 5.074e-6
0.940, 5.156e-6
0.944, 5.109e-6
0.948, 5.239e-6
0.952, 5.085e-6
0.956, 5.274e-6
0.960, 5.121e-6
0.964, 5.109e-6
0.968, 5.121e-6
0.972, 5.097e-6
0.976, 5.121e-6
0.980, 5.203e-6
0.984, 5.085e-6
0.988, 5.286e-6
0.992, 5.191e-6
0.996, 5.203e-6
1.000, 4.956e-6
