July 22, 2025   10:34:57
Differential Pulse Voltammetry
File: e:\Data Source:  Experiment
Instrument Model:  CHI620E
Header: 
Note: 

Init E (V) = 0
Final E (V) = 1
Incr E (V) = 0.004
Amplitude (V) = 0.05
Pulse Width (sec) = 0.05
Sample Width (sec) = 0.0167
Pulse Period (sec) = 0.5
Quiet Time (sec) = 2
Sensitivity (A/V) = 0.01

Results:

Channel 1:
Ep = 0.172V
ip = 6.303e-6A
Ap = 1.143e-6VA

Ep = 0.716V
ip = 1.105e-4A
Ap = 1.110e-5VA

Potential/V, Current/A

0.004, 2.088e-5
0.008, 1.834e-5
0.012, 1.663e-5
0.016, 1.522e-5
0.020, 1.429e-5
0.024, 1.371e-5
0.028, 1.290e-5
0.032, 1.265e-5
0.036, 1.225e-5
0.040, 1.207e-5
0.044, 1.195e-5
0.048, 1.158e-5
0.052, 1.152e-5
0.056, 1.142e-5
0.060, 1.137e-5
0.064, 1.125e-5
0.068, 1.135e-5
0.072, 1.122e-5
0.076, 1.132e-5
0.080, 1.142e-5
0.084, 1.156e-5
0.088, 1.143e-5
0.092, 1.170e-5
0.096, 1.189e-5
0.100, 1.204e-5
0.104, 1.225e-5
0.108, 1.247e-5
0.112, 1.277e-5
0.116, 1.301e-5
0.120, 1.322e-5
0.124, 1.341e-5
0.128, 1.375e-5
0.132, 1.391e-5
0.136, 1.420e-5
0.140, 1.448e-5
0.144, 1.461e-5
0.148, 1.481e-5
0.152, 1.506e-5
0.156, 1.524e-5
0.160, 1.546e-5
0.164, 1.544e-5
0.168, 1.581e-5
0.172, 1.585e-5
0.176, 1.576e-5
0.180, 1.575e-5
0.184, 1.580e-5
0.188, 1.572e-5
0.192, 1.573e-5
0.196, 1.561e-5
0.200, 1.542e-5
0.204, 1.547e-5
0.208, 1.526e-5
0.212, 1.514e-5
0.216, 1.509e-5
0.220, 1.500e-5
0.224, 1.489e-5
0.228, 1.463e-5
0.232, 1.449e-5
0.236, 1.447e-5
0.240, 1.421e-5
0.244, 1.411e-5
0.248, 1.377e-5
0.252, 1.367e-5
0.256, 1.356e-5
0.260, 1.322e-5
0.264, 1.314e-5
0.268, 1.297e-5
0.272, 1.274e-5
0.276, 1.251e-5
0.280, 1.218e-5
0.284, 1.182e-5
0.288, 1.178e-5
0.292, 1.140e-5
0.296, 1.108e-5
0.300, 1.084e-5
0.304, 1.065e-5
0.308, 1.027e-5
0.312, 9.877e-6
0.316, 9.783e-6
0.320, 9.335e-6
0.324, 9.159e-6
0.328, 8.935e-6
0.332, 8.546e-6
0.336, 8.323e-6
0.340, 8.028e-6
0.344, 7.616e-6
0.348, 7.581e-6
0.352, 7.299e-6
0.356, 7.051e-6
0.360, 6.898e-6
0.364, 6.686e-6
0.368, 6.616e-6
0.372, 6.357e-6
0.376, 6.180e-6
0.380, 6.039e-6
0.384, 5.862e-6
0.388, 5.815e-6
0.392, 5.792e-6
0.396, 5.651e-6
0.400, 5.615e-6
0.404, 5.415e-6
0.408, 5.486e-6
0.412, 5.380e-6
0.416, 5.144e-6
0.420, 5.097e-6
0.424, 5.074e-6
0.428, 4.956e-6
0.432, 4.944e-6
0.436, 4.850e-6
0.440, 4.650e-6
0.444, 4.815e-6
0.448, 4.744e-6
0.452, 4.556e-6
0.456, 4.556e-6
0.460, 4.697e-6
0.464, 4.591e-6
0.468, 4.579e-6
0.472, 4.520e-6
0.476, 4.544e-6
0.480, 4.603e-6
0.484, 4.356e-6
0.488, 4.297e-6
0.492, 4.438e-6
0.496, 4.309e-6
0.500, 4.297e-6
0.504, 4.238e-6
0.508, 4.238e-6
0.512, 4.073e-6
0.516, 4.167e-6
0.520, 4.097e-6
0.524, 4.309e-6
0.528, 3.932e-6
0.532, 4.108e-6
0.536, 4.050e-6
0.540, 4.002e-6
0.544, 4.050e-6
0.548, 4.050e-6
0.552, 4.203e-6
0.556, 4.203e-6
0.560, 4.120e-6
0.564, 4.332e-6
0.568, 4.191e-6
0.572, 4.544e-6
0.576, 4.438e-6
0.580, 4.626e-6
0.584, 4.791e-6
0.588, 5.144e-6
0.592, 5.250e-6
0.596, 5.768e-6
0.600, 6.074e-6
0.604, 6.828e-6
0.608, 7.652e-6
0.612, 8.711e-6
0.616, 9.936e-6
0.620, 1.185e-5
0.624, 1.420e-5
0.628, 1.745e-5
0.632, 2.163e-5
0.636, 2.700e-5
0.640, 3.373e-5
0.644, 4.154e-5
0.648, 4.983e-5
0.652, 5.852e-5
0.656, 6.778e-5
0.660, 7.802e-5
0.664, 8.842e-5
0.668, 9.925e-5
0.672, 1.104e-4
0.676, 1.224e-4
0.680, 1.346e-4
0.684, 1.470e-4
0.688, 1.588e-4
0.692, 1.699e-4
0.696, 1.795e-4
0.700, 1.876e-4
0.704, 1.942e-4
0.708, 1.986e-4
0.712, 2.012e-4
0.716, 2.021e-4
0.720, 2.018e-4
0.724, 2.005e-4
0.728, 1.983e-4
0.732, 1.960e-4
0.736, 1.937e-4
0.740, 1.916e-4
0.744, 1.898e-4
0.748, 1.885e-4
0.752, 1.874e-4
0.756, 1.861e-4
0.760, 1.850e-4
0.764, 1.837e-4
0.768, 1.827e-4
0.772, 1.815e-4
0.776, 1.804e-4
0.780, 1.792e-4
0.784, 1.779e-4
0.788, 1.762e-4
0.792, 1.745e-4
0.796, 1.727e-4
0.800, 1.706e-4
0.804, 1.683e-4
0.808, 1.660e-4
0.812, 1.640e-4
0.816, 1.615e-4
0.820, 1.595e-4
0.824, 1.574e-4
0.828, 1.560e-4
0.832, 1.549e-4
0.836, 1.539e-4
0.840, 1.534e-4
0.844, 1.534e-4
0.848, 1.536e-4
0.852, 1.544e-4
0.856, 1.555e-4
0.860, 1.568e-4
0.864, 1.586e-4
0.868, 1.604e-4
0.872, 1.623e-4
0.876, 1.646e-4
0.880, 1.679e-4
0.884, 1.706e-4
0.888, 1.733e-4
0.892, 1.761e-4
0.896, 1.786e-4
0.900, 1.811e-4
0.904, 1.836e-4
0.908, 1.858e-4
0.912, 1.879e-4
0.916, 1.896e-4
0.920, 1.910e-4
0.924, 1.920e-4
0.928, 1.927e-4
0.932, 1.928e-4
0.936, 1.927e-4
0.940, 1.923e-4
0.944, 1.915e-4
0.948, 1.904e-4
0.952, 1.891e-4
0.956, 1.876e-4
0.960, 1.857e-4
0.964, 1.835e-4
0.968, 1.808e-4
0.972, 1.775e-4
0.976, 1.732e-4
0.980, 1.679e-4
0.984, 1.610e-4
0.988, 1.531e-4
0.992, 1.450e-4
0.996, 1.366e-4
1.000, 1.292e-4
