July 22, 2025   10:37:07
Differential Pulse Voltammetry
File: e:\Data Source:  Experiment
Instrument Model:  CHI620E
Header: 
Note: 

Init E (V) = 0
Final E (V) = 1
Incr E (V) = 0.004
Amplitude (V) = 0.05
Pulse Width (sec) = 0.05
Sample Width (sec) = 0.0167
Pulse Period (sec) = 0.5
Quiet Time (sec) = 2
Sensitivity (A/V) = 0.01

Results:

Channel 1:
Ep = 0.728V
ip = 9.199e-5A
Ap = 8.787e-6VA

Potential/V, Current/A

0.004, 2.122e-5
0.008, 1.875e-5
0.012, 1.669e-5
0.016, 1.530e-5
0.020, 1.449e-5
0.024, 1.377e-5
0.028, 1.315e-5
0.032, 1.288e-5
0.036, 1.225e-5
0.040, 1.198e-5
0.044, 1.176e-5
0.048, 1.152e-5
0.052, 1.105e-5
0.056, 1.098e-5
0.060, 1.098e-5
0.064, 1.098e-5
0.068, 1.094e-5
0.072, 1.092e-5
0.076, 1.111e-5
0.080, 1.118e-5
0.084, 1.134e-5
0.088, 1.125e-5
0.092, 1.134e-5
0.096, 1.143e-5
0.100, 1.148e-5
0.104, 1.152e-5
0.108, 1.151e-5
0.112, 1.149e-5
0.116, 1.143e-5
0.120, 1.147e-5
0.124, 1.154e-5
0.128, 1.137e-5
0.132, 1.129e-5
0.136, 1.136e-5
0.140, 1.134e-5
0.144, 1.132e-5
0.148, 1.128e-5
0.152, 1.124e-5
0.156, 1.117e-5
0.160, 1.123e-5
0.164, 1.118e-5
0.168, 1.109e-5
0.172, 1.122e-5
0.176, 1.108e-5
0.180, 1.104e-5
0.184, 1.098e-5
0.188, 1.100e-5
0.192, 1.090e-5
0.196, 1.077e-5
0.200, 1.081e-5
0.204, 1.082e-5
0.208, 1.069e-5
0.212, 1.058e-5
0.216, 1.052e-5
0.220, 1.034e-5
0.224, 1.014e-5
0.228, 1.014e-5
0.232, 1.002e-5
0.236, 9.841e-6
0.240, 9.629e-6
0.244, 9.429e-6
0.248, 9.170e-6
0.252, 9.017e-6
0.256, 8.876e-6
0.260, 8.535e-6
0.264, 8.464e-6
0.268, 8.323e-6
0.272, 7.923e-6
0.276, 7.793e-6
0.280, 7.558e-6
0.284, 7.452e-6
0.288, 7.346e-6
0.292, 6.981e-6
0.296, 6.898e-6
0.300, 6.651e-6
0.304, 6.639e-6
0.308, 6.333e-6
0.312, 6.169e-6
0.316, 6.133e-6
0.320, 5.933e-6
0.324, 5.627e-6
0.328, 5.498e-6
0.332, 5.592e-6
0.336, 5.321e-6
0.340, 5.239e-6
0.344, 5.121e-6
0.348, 4.956e-6
0.352, 4.921e-6
0.356, 4.709e-6
0.360, 4.721e-6
0.364, 4.685e-6
0.368, 4.509e-6
0.372, 4.568e-6
0.376, 4.356e-6
0.380, 4.391e-6
0.384, 4.297e-6
0.388, 4.085e-6
0.392, 4.214e-6
0.396, 4.191e-6
0.400, 4.156e-6
0.404, 4.191e-6
0.408, 3.944e-6
0.412, 3.944e-6
0.416, 3.991e-6
0.420, 3.849e-6
0.424, 3.861e-6
0.428, 3.979e-6
0.432, 3.826e-6
0.436, 3.873e-6
0.440, 3.767e-6
0.444, 3.685e-6
0.448, 3.661e-6
0.452, 3.696e-6
0.456, 3.543e-6
0.460, 3.602e-6
0.464, 3.696e-6
0.468, 3.473e-6
0.472, 3.626e-6
0.476, 3.579e-6
0.480, 3.638e-6
0.484, 3.437e-6
0.488, 3.543e-6
0.492, 3.590e-6
0.496, 3.390e-6
0.500, 3.355e-6
0.504, 3.379e-6
0.508, 3.473e-6
0.512, 3.331e-6
0.516, 3.249e-6
0.520, 3.390e-6
0.524, 3.437e-6
0.528, 3.379e-6
0.532, 3.414e-6
0.536, 3.308e-6
0.540, 3.367e-6
0.544, 3.402e-6
0.548, 3.379e-6
0.552, 3.402e-6
0.556, 3.508e-6
0.560, 3.426e-6
0.564, 3.485e-6
0.568, 3.390e-6
0.572, 3.543e-6
0.576, 3.779e-6
0.580, 3.791e-6
0.584, 3.897e-6
0.588, 4.061e-6
0.592, 4.309e-6
0.596, 4.638e-6
0.600, 4.768e-6
0.604, 5.368e-6
0.608, 5.980e-6
0.612, 6.533e-6
0.616, 7.511e-6
0.620, 8.794e-6
0.624, 1.047e-5
0.628, 1.263e-5
0.632, 1.583e-5
0.636, 1.988e-5
0.640, 2.504e-5
0.644, 3.089e-5
0.648, 3.792e-5
0.652, 4.499e-5
0.656, 5.234e-5
0.660, 5.974e-5
0.664, 6.714e-5
0.668, 7.513e-5
0.672, 8.292e-5
0.676, 9.081e-5
0.680, 9.941e-5
0.684, 1.087e-4
0.688, 1.187e-4
0.692, 1.287e-4
0.696, 1.387e-4
0.700, 1.485e-4
0.704, 1.574e-4
0.708, 1.650e-4
0.712, 1.718e-4
0.716, 1.776e-4
0.720, 1.823e-4
0.724, 1.853e-4
0.728, 1.866e-4
0.732, 1.863e-4
0.736, 1.845e-4
0.740, 1.829e-4
0.744, 1.809e-4
0.748, 1.795e-4
0.752, 1.781e-4
0.756, 1.771e-4
0.760, 1.762e-4
0.764, 1.752e-4
0.768, 1.743e-4
0.772, 1.732e-4
0.776, 1.724e-4
0.780, 1.713e-4
0.784, 1.703e-4
0.788, 1.689e-4
0.792, 1.676e-4
0.796, 1.658e-4
0.800, 1.641e-4
0.804, 1.624e-4
0.808, 1.605e-4
0.812, 1.585e-4
0.816, 1.566e-4
0.820, 1.548e-4
0.824, 1.528e-4
0.828, 1.515e-4
0.832, 1.504e-4
0.836, 1.495e-4
0.840, 1.490e-4
0.844, 1.490e-4
0.848, 1.492e-4
0.852, 1.498e-4
0.856, 1.508e-4
0.860, 1.520e-4
0.864, 1.535e-4
0.868, 1.551e-4
0.872, 1.570e-4
0.876, 1.592e-4
0.880, 1.614e-4
0.884, 1.637e-4
0.888, 1.662e-4
0.892, 1.690e-4
0.896, 1.715e-4
0.900, 1.738e-4
0.904, 1.762e-4
0.908, 1.784e-4
0.912, 1.806e-4
0.916, 1.822e-4
0.920, 1.837e-4
0.924, 1.850e-4
0.928, 1.857e-4
0.932, 1.862e-4
0.936, 1.866e-4
0.940, 1.863e-4
0.944, 1.863e-4
0.948, 1.857e-4
0.952, 1.849e-4
0.956, 1.843e-4
0.960, 1.830e-4
0.964, 1.819e-4
0.968, 1.804e-4
0.972, 1.782e-4
0.976, 1.754e-4
0.980, 1.717e-4
0.984, 1.668e-4
0.988, 1.610e-4
0.992, 1.543e-4
0.996, 1.469e-4
1.000, 1.396e-4
