July 22, 2025   21:25:47
Differential Pulse Voltammetry
File: e:\Data Source:  Experiment
Instrument Model:  CHI620E
Header: 
Note: 

Init E (V) = 0
Final E (V) = 1
Incr E (V) = 0.004
Amplitude (V) = 0.05
Pulse Width (sec) = 0.05
Sample Width (sec) = 0.0167
Pulse Period (sec) = 0.5
Quiet Time (sec) = 2
Sensitivity (A/V) = 0.01

Results:

Channel 1:
Ep = 0.700V
ip = 7.703e-6A
Ap = 8.969e-7VA

Potential/V, Current/A

0.004, 4.462e-6
0.008, 4.144e-6
0.012, 3.791e-6
0.016, 3.638e-6
0.020, 3.473e-6
0.024, 3.284e-6
0.028, 3.084e-6
0.032, 3.072e-6
0.036, 2.884e-6
0.040, 2.743e-6
0.044, 2.696e-6
0.048, 2.837e-6
0.052, 2.613e-6
0.056, 2.496e-6
0.060, 2.625e-6
0.064, 2.637e-6
0.068, 2.484e-6
0.072, 2.284e-6
0.076, 2.413e-6
0.080, 2.425e-6
0.084, 2.307e-6
0.088, 2.260e-6
0.092, 2.272e-6
0.096, 2.319e-6
0.100, 2.225e-6
0.104, 2.284e-6
0.108, 2.213e-6
0.112, 2.201e-6
0.116, 2.225e-6
0.120, 2.119e-6
0.124, 2.119e-6
0.128, 2.119e-6
0.132, 2.095e-6
0.136, 2.060e-6
0.140, 2.107e-6
0.144, 2.037e-6
0.148, 1.978e-6
0.152, 1.895e-6
0.156, 2.119e-6
0.160, 2.060e-6
0.164, 1.966e-6
0.168, 1.872e-6
0.172, 1.954e-6
0.176, 1.954e-6
0.180, 1.907e-6
0.184, 1.848e-6
0.188, 1.942e-6
0.192, 1.754e-6
0.196, 1.742e-6
0.200, 1.860e-6
0.204, 1.660e-6
0.208, 1.801e-6
0.212, 1.648e-6
0.216, 1.636e-6
0.220, 1.683e-6
0.224, 1.601e-6
0.228, 1.577e-6
0.232, 1.519e-6
0.236, 1.530e-6
0.240, 1.471e-6
0.244, 1.460e-6
0.248, 1.366e-6
0.252, 1.448e-6
0.256, 1.354e-6
0.260, 1.236e-6
0.264, 1.354e-6
0.268, 1.307e-6
0.272, 1.342e-6
0.276, 1.413e-6
0.280, 1.377e-6
0.284, 1.189e-6
0.288, 1.307e-6
0.292, 1.271e-6
0.296, 1.189e-6
0.300, 1.330e-6
0.304, 1.307e-6
0.308, 1.248e-6
0.312, 1.142e-6
0.316, 1.142e-6
0.320, 1.154e-6
0.324, 1.142e-6
0.328, 1.142e-6
0.332, 1.154e-6
0.336, 1.295e-6
0.340, 1.201e-6
0.344, 1.248e-6
0.348, 1.201e-6
0.352, 1.142e-6
0.356, 1.177e-6
0.360, 1.154e-6
0.364, 1.165e-6
0.368, 1.213e-6
0.372, 1.248e-6
0.376, 1.189e-6
0.380, 1.318e-6
0.384, 1.165e-6
0.388, 1.224e-6
0.392, 1.083e-6
0.396, 1.177e-6
0.400, 1.260e-6
0.404, 1.118e-6
0.408, 1.189e-6
0.412, 1.236e-6
0.416, 1.118e-6
0.420, 1.095e-6
0.424, 1.118e-6
0.428, 1.036e-6
0.432, 1.107e-6
0.436, 1.248e-6
0.440, 1.095e-6
0.444, 1.295e-6
0.448, 1.083e-6
0.452, 1.107e-6
0.456, 1.130e-6
0.460, 9.771e-7
0.464, 1.036e-6
0.468, 1.024e-6
0.472, 1.118e-6
0.476, 1.130e-6
0.480, 1.189e-6
0.484, 1.107e-6
0.488, 1.248e-6
0.492, 1.154e-6
0.496, 9.535e-7
0.500, 1.071e-6
0.504, 9.535e-7
0.508, 1.036e-6
0.512, 1.036e-6
0.516, 1.036e-6
0.520, 1.165e-6
0.524, 1.189e-6
0.528, 1.154e-6
0.532, 1.012e-6
0.536, 1.095e-6
0.540, 1.071e-6
0.544, 1.048e-6
0.548, 1.071e-6
0.552, 1.142e-6
0.556, 1.130e-6
0.560, 1.048e-6
0.564, 1.107e-6
0.568, 1.154e-6
0.572, 1.377e-6
0.576, 1.224e-6
0.580, 1.142e-6
0.584, 1.424e-6
0.588, 1.354e-6
0.592, 1.318e-6
0.596, 1.342e-6
0.600, 1.283e-6
0.604, 1.413e-6
0.608, 1.554e-6
0.612, 1.589e-6
0.616, 1.719e-6
0.620, 1.660e-6
0.624, 1.789e-6
0.628, 2.060e-6
0.632, 2.142e-6
0.636, 2.366e-6
0.640, 2.472e-6
0.644, 2.766e-6
0.648, 3.061e-6
0.652, 3.496e-6
0.656, 4.038e-6
0.660, 4.509e-6
0.664, 5.074e-6
0.668, 5.698e-6
0.672, 6.475e-6
0.676, 7.063e-6
0.680, 7.970e-6
0.684, 8.499e-6
0.688, 9.135e-6
0.692, 9.524e-6
0.696, 9.841e-6
0.700, 1.017e-5
0.704, 1.003e-5
0.708, 1.002e-5
0.712, 9.865e-6
0.716, 9.606e-6
0.720, 9.300e-6
0.724, 8.935e-6
0.728, 8.652e-6
0.732, 8.488e-6
0.736, 8.205e-6
0.740, 7.946e-6
0.744, 7.687e-6
0.748, 7.534e-6
0.752, 7.310e-6
0.756, 7.063e-6
0.760, 6.945e-6
0.764, 6.875e-6
0.768, 6.698e-6
0.772, 6.416e-6
0.776, 6.557e-6
0.780, 6.380e-6
0.784, 6.369e-6
0.788, 6.216e-6
0.792, 6.133e-6
0.796, 5.957e-6
0.800, 6.121e-6
0.804, 6.004e-6
0.808, 5.980e-6
0.812, 5.910e-6
0.816, 5.945e-6
0.820, 5.780e-6
0.824, 5.674e-6
0.828, 5.662e-6
0.832, 5.580e-6
0.836, 5.592e-6
0.840, 5.533e-6
0.844, 5.486e-6
0.848, 5.450e-6
0.852, 5.380e-6
0.856, 5.262e-6
0.860, 5.286e-6
0.864, 5.286e-6
0.868, 5.144e-6
0.872, 5.321e-6
0.876, 5.144e-6
0.880, 5.121e-6
0.884, 5.097e-6
0.888, 4.862e-6
0.892, 4.909e-6
0.896, 5.038e-6
0.900, 4.768e-6
0.904, 4.838e-6
0.908, 4.756e-6
0.912, 4.697e-6
0.916, 4.673e-6
0.920, 4.603e-6
0.924, 4.638e-6
0.928, 4.544e-6
0.932, 4.438e-6
0.936, 4.544e-6
0.940, 4.485e-6
0.944, 4.520e-6
0.948, 4.367e-6
0.952, 4.320e-6
0.956, 4.367e-6
0.960, 4.167e-6
0.964, 4.156e-6
0.968, 4.273e-6
0.972, 4.167e-6
0.976, 4.179e-6
0.980, 4.285e-6
0.984, 4.120e-6
0.988, 4.085e-6
0.992, 4.061e-6
0.996, 4.097e-6
1.000, 4.144e-6
