July 15, 2025   16:43:47
Differential Pulse Voltammetry
File: e:\Data Source:  Experiment
Instrument Model:  CHI620E
Header: 
Note: 

Init E (V) = 0
Final E (V) = 1
Incr E (V) = 0.004
Amplitude (V) = 0.05
Pulse Width (sec) = 0.05
Sample Width (sec) = 0.0167
Pulse Period (sec) = 0.5
Quiet Time (sec) = 2
Sensitivity (A/V) = 0.01

Results:

Channel 1:
Ep = 0.576V
ip = 1.524e-5A
Ap = 5.624e-7VA

Potential/V, Current/A

0.004, 2.350e-5
0.008, 2.167e-5
0.012, 1.977e-5
0.016, 1.782e-5
0.020, 1.636e-5
0.024, 1.529e-5
0.028, 1.449e-5
0.032, 1.383e-5
0.036, 1.334e-5
0.040, 1.294e-5
0.044, 1.256e-5
0.048, 1.208e-5
0.052, 1.171e-5
0.056, 1.114e-5
0.060, 1.085e-5
0.064, 1.043e-5
0.068, 1.010e-5
0.072, 9.700e-6
0.076, 9.488e-6
0.080, 9.182e-6
0.084, 8.829e-6
0.088, 8.476e-6
0.092, 8.205e-6
0.096, 8.087e-6
0.100, 7.887e-6
0.104, 7.546e-6
0.108, 7.405e-6
0.112, 7.322e-6
0.116, 7.087e-6
0.120, 6.898e-6
0.124, 6.745e-6
0.128, 6.510e-6
0.132, 6.322e-6
0.136, 6.345e-6
0.140, 6.157e-6
0.144, 6.098e-6
0.148, 5.992e-6
0.152, 5.839e-6
0.156, 5.698e-6
0.160, 5.568e-6
0.164, 5.568e-6
0.168, 5.509e-6
0.172, 5.427e-6
0.176, 5.403e-6
0.180, 5.286e-6
0.184, 4.968e-6
0.188, 5.156e-6
0.192, 5.062e-6
0.196, 5.027e-6
0.200, 4.921e-6
0.204, 4.932e-6
0.208, 4.885e-6
0.212, 4.673e-6
0.216, 4.579e-6
0.220, 4.697e-6
0.224, 4.591e-6
0.228, 4.638e-6
0.232, 4.391e-6
0.236, 4.473e-6
0.240, 4.332e-6
0.244, 4.367e-6
0.248, 4.462e-6
0.252, 4.367e-6
0.256, 4.238e-6
0.260, 4.191e-6
0.264, 4.191e-6
0.268, 4.367e-6
0.272, 4.238e-6
0.276, 4.085e-6
0.280, 4.085e-6
0.284, 4.214e-6
0.288, 4.108e-6
0.292, 4.002e-6
0.296, 4.014e-6
0.300, 4.026e-6
0.304, 3.897e-6
0.308, 3.908e-6
0.312, 3.967e-6
0.316, 3.897e-6
0.320, 3.802e-6
0.324, 3.743e-6
0.328, 3.779e-6
0.332, 3.791e-6
0.336, 3.873e-6
0.340, 3.732e-6
0.344, 3.932e-6
0.348, 3.720e-6
0.352, 3.838e-6
0.356, 3.732e-6
0.360, 3.720e-6
0.364, 3.920e-6
0.368, 3.979e-6
0.372, 3.755e-6
0.376, 3.685e-6
0.380, 3.743e-6
0.384, 3.767e-6
0.388, 3.755e-6
0.392, 3.720e-6
0.396, 3.743e-6
0.400, 3.755e-6
0.404, 3.673e-6
0.408, 3.838e-6
0.412, 3.826e-6
0.416, 3.779e-6
0.420, 3.732e-6
0.424, 3.861e-6
0.428, 3.767e-6
0.432, 3.779e-6
0.436, 3.814e-6
0.440, 3.814e-6
0.444, 3.991e-6
0.448, 3.967e-6
0.452, 3.814e-6
0.456, 3.861e-6
0.460, 4.014e-6
0.464, 4.061e-6
0.468, 4.073e-6
0.472, 4.285e-6
0.476, 4.309e-6
0.480, 4.626e-6
0.484, 4.626e-6
0.488, 4.685e-6
0.492, 5.003e-6
0.496, 5.403e-6
0.500, 5.674e-6
0.504, 6.286e-6
0.508, 6.898e-6
0.512, 7.793e-6
0.516, 8.794e-6
0.520, 9.936e-6
0.524, 1.136e-5
0.528, 1.300e-5
0.532, 1.479e-5
0.536, 1.706e-5
0.540, 1.948e-5
0.544, 2.251e-5
0.548, 2.610e-5
0.552, 3.054e-5
0.556, 3.521e-5
0.560, 4.026e-5
0.564, 4.452e-5
0.568, 4.772e-5
0.572, 5.016e-5
0.576, 5.133e-5
0.580, 5.095e-5
0.584, 5.001e-5
0.588, 4.874e-5
0.592, 4.749e-5
0.596, 4.682e-5
0.600, 4.650e-5
0.604, 4.646e-5
0.608, 4.681e-5
0.612, 4.704e-5
0.616, 4.725e-5
0.620, 4.771e-5
0.624, 4.806e-5
0.628, 4.858e-5
0.632, 4.912e-5
0.636, 4.945e-5
0.640, 5.007e-5
0.644, 5.049e-5
0.648, 5.093e-5
0.652, 5.178e-5
0.656, 5.231e-5
0.660, 5.282e-5
0.664, 5.347e-5
0.668, 5.396e-5
0.672, 5.443e-5
0.676, 5.489e-5
0.680, 5.553e-5
0.684, 5.574e-5
0.688, 5.616e-5
0.692, 5.638e-5
0.696, 5.640e-5
0.700, 5.676e-5
0.704, 5.691e-5
0.708, 5.663e-5
0.712, 5.666e-5
0.716, 5.646e-5
0.720, 5.621e-5
0.724, 5.568e-5
0.728, 5.519e-5
0.732, 5.456e-5
0.736, 5.380e-5
0.740, 5.291e-5
0.744, 5.198e-5
0.748, 5.096e-5
0.752, 4.983e-5
0.756, 4.850e-5
0.760, 4.705e-5
0.764, 4.586e-5
0.768, 4.445e-5
0.772, 4.289e-5
0.776, 4.154e-5
0.780, 4.002e-5
0.784, 3.861e-5
0.788, 3.711e-5
0.792, 3.556e-5
0.796, 3.427e-5
0.800, 3.294e-5
0.804, 3.150e-5
0.808, 3.034e-5
0.812, 2.922e-5
0.816, 2.792e-5
0.820, 2.673e-5
0.824, 2.572e-5
0.828, 2.497e-5
0.832, 2.387e-5
0.836, 2.332e-5
0.840, 2.253e-5
0.844, 2.181e-5
0.848, 2.120e-5
0.852, 2.049e-5
0.856, 2.002e-5
0.860, 1.953e-5
0.864, 1.908e-5
0.868, 1.878e-5
0.872, 1.835e-5
0.876, 1.782e-5
0.880, 1.762e-5
0.884, 1.743e-5
0.888, 1.690e-5
0.892, 1.693e-5
0.896, 1.661e-5
0.900, 1.648e-5
0.904, 1.634e-5
0.908, 1.629e-5
0.912, 1.619e-5
0.916, 1.610e-5
0.920, 1.600e-5
0.924, 1.594e-5
0.928, 1.603e-5
0.932, 1.585e-5
0.936, 1.582e-5
0.940, 1.595e-5
0.944, 1.588e-5
0.948, 1.594e-5
0.952, 1.597e-5
0.956, 1.586e-5
0.960, 1.605e-5
0.964, 1.619e-5
0.968, 1.627e-5
0.972, 1.629e-5
0.976, 1.646e-5
0.980, 1.659e-5
0.984, 1.661e-5
0.988, 1.669e-5
0.992, 1.682e-5
0.996, 1.689e-5
1.000, 1.690e-5
