July 24, 2025   11:47:15
Differential Pulse Voltammetry
File: e:\Data Source:  Experiment
Instrument Model:  CHI620E
Header: 
Note: 

Init E (V) = 0
Final E (V) = 1
Incr E (V) = 0.004
Amplitude (V) = 0.05
Pulse Width (sec) = 0.05
Sample Width (sec) = 0.0167
Pulse Period (sec) = 0.5
Quiet Time (sec) = 2
Sensitivity (A/V) = 0.01

Results:

Channel 1:
Ep = 0.540V
ip = 2.694e-5A
Ap = 2.914e-6VA

Potential/V, Current/A

0.004, 1.267e-5
0.008, 1.168e-5
0.012, 1.092e-5
0.016, 1.037e-5
0.020, 9.818e-6
0.024, 9.641e-6
0.028, 9.359e-6
0.032, 9.064e-6
0.036, 8.864e-6
0.040, 8.641e-6
0.044, 8.476e-6
0.048, 8.311e-6
0.052, 7.958e-6
0.056, 7.934e-6
0.060, 7.746e-6
0.064, 7.605e-6
0.068, 7.275e-6
0.072, 7.134e-6
0.076, 6.934e-6
0.080, 6.887e-6
0.084, 6.675e-6
0.088, 6.427e-6
0.092, 6.298e-6
0.096, 6.157e-6
0.100, 6.004e-6
0.104, 5.933e-6
0.108, 5.768e-6
0.112, 5.521e-6
0.116, 5.592e-6
0.120, 5.356e-6
0.124, 5.344e-6
0.128, 5.227e-6
0.132, 5.191e-6
0.136, 5.015e-6
0.140, 4.968e-6
0.144, 5.015e-6
0.148, 4.862e-6
0.152, 4.779e-6
0.156, 4.779e-6
0.160, 4.732e-6
0.164, 4.509e-6
0.168, 4.626e-6
0.172, 4.509e-6
0.176, 4.532e-6
0.180, 4.426e-6
0.184, 4.238e-6
0.188, 4.261e-6
0.192, 4.320e-6
0.196, 4.238e-6
0.200, 4.050e-6
0.204, 4.120e-6
0.208, 4.179e-6
0.212, 3.967e-6
0.216, 3.932e-6
0.220, 3.955e-6
0.224, 3.991e-6
0.228, 3.885e-6
0.232, 3.873e-6
0.236, 3.802e-6
0.240, 3.849e-6
0.244, 3.720e-6
0.248, 3.685e-6
0.252, 3.626e-6
0.256, 3.743e-6
0.260, 3.543e-6
0.264, 3.638e-6
0.268, 3.567e-6
0.272, 3.626e-6
0.276, 3.461e-6
0.280, 3.484e-6
0.284, 3.555e-6
0.288, 3.461e-6
0.292, 3.402e-6
0.296, 3.331e-6
0.300, 3.437e-6
0.304, 3.355e-6
0.308, 3.261e-6
0.312, 3.214e-6
0.316, 3.261e-6
0.320, 3.167e-6
0.324, 3.237e-6
0.328, 3.155e-6
0.332, 3.096e-6
0.336, 3.178e-6
0.340, 3.084e-6
0.344, 3.084e-6
0.348, 3.049e-6
0.352, 2.955e-6
0.356, 2.943e-6
0.360, 3.037e-6
0.364, 3.131e-6
0.368, 3.049e-6
0.372, 3.025e-6
0.376, 3.025e-6
0.380, 2.943e-6
0.384, 3.014e-6
0.388, 2.908e-6
0.392, 3.002e-6
0.396, 2.978e-6
0.400, 3.025e-6
0.404, 3.108e-6
0.408, 3.108e-6
0.412, 3.237e-6
0.416, 3.155e-6
0.420, 3.249e-6
0.424, 3.402e-6
0.428, 3.520e-6
0.432, 3.696e-6
0.436, 3.920e-6
0.440, 4.156e-6
0.444, 4.603e-6
0.448, 4.909e-6
0.452, 5.333e-6
0.456, 5.804e-6
0.460, 6.533e-6
0.464, 7.416e-6
0.468, 8.299e-6
0.472, 9.594e-6
0.476, 1.098e-5
0.480, 1.275e-5
0.484, 1.481e-5
0.488, 1.708e-5
0.492, 1.981e-5
0.496, 2.281e-5
0.500, 2.579e-5
0.504, 2.890e-5
0.508, 3.187e-5
0.512, 3.456e-5
0.516, 3.701e-5
0.520, 3.891e-5
0.524, 4.051e-5
0.528, 4.154e-5
0.532, 4.208e-5
0.536, 4.260e-5
0.540, 4.267e-5
0.544, 4.231e-5
0.548, 4.168e-5
0.552, 4.103e-5
0.556, 4.027e-5
0.560, 3.985e-5
0.564, 3.931e-5
0.568, 3.882e-5
0.572, 3.880e-5
0.576, 3.842e-5
0.580, 3.827e-5
0.584, 3.818e-5
0.588, 3.786e-5
0.592, 3.752e-5
0.596, 3.714e-5
0.600, 3.694e-5
0.604, 3.636e-5
0.608, 3.582e-5
0.612, 3.527e-5
0.616, 3.448e-5
0.620, 3.379e-5
0.624, 3.326e-5
0.628, 3.268e-5
0.632, 3.200e-5
0.636, 3.160e-5
0.640, 3.094e-5
0.644, 3.032e-5
0.648, 2.990e-5
0.652, 2.957e-5
0.656, 2.902e-5
0.660, 2.866e-5
0.664, 2.828e-5
0.668, 2.790e-5
0.672, 2.766e-5
0.676, 2.721e-5
0.680, 2.695e-5
0.684, 2.668e-5
0.688, 2.646e-5
0.692, 2.604e-5
0.696, 2.551e-5
0.700, 2.543e-5
0.704, 2.494e-5
0.708, 2.450e-5
0.712, 2.412e-5
0.716, 2.373e-5
0.720, 2.313e-5
0.724, 2.263e-5
0.728, 2.215e-5
0.732, 2.157e-5
0.736, 2.112e-5
0.740, 2.060e-5
0.744, 2.011e-5
0.748, 1.959e-5
0.752, 1.918e-5
0.756, 1.846e-5
0.760, 1.800e-5
0.764, 1.765e-5
0.768, 1.708e-5
0.772, 1.646e-5
0.776, 1.632e-5
0.780, 1.576e-5
0.784, 1.539e-5
0.788, 1.508e-5
0.792, 1.459e-5
0.796, 1.423e-5
0.800, 1.403e-5
0.804, 1.366e-5
0.808, 1.337e-5
0.812, 1.316e-5
0.816, 1.291e-5
0.820, 1.267e-5
0.824, 1.233e-5
0.828, 1.205e-5
0.832, 1.192e-5
0.836, 1.164e-5
0.840, 1.162e-5
0.844, 1.137e-5
0.848, 1.123e-5
0.852, 1.114e-5
0.856, 1.091e-5
0.860, 1.083e-5
0.864, 1.079e-5
0.868, 1.057e-5
0.872, 1.044e-5
0.876, 1.052e-5
0.880, 1.039e-5
0.884, 1.037e-5
0.888, 1.030e-5
0.892, 1.025e-5
0.896, 1.022e-5
0.900, 1.019e-5
0.904, 1.018e-5
0.908, 1.016e-5
0.912, 1.027e-5
0.916, 1.018e-5
0.920, 1.010e-5
0.924, 1.014e-5
0.928, 1.021e-5
0.932, 1.015e-5
0.936, 1.018e-5
0.940, 1.018e-5
0.944, 1.030e-5
0.948, 1.032e-5
0.952, 1.017e-5
0.956, 1.030e-5
0.960, 1.038e-5
0.964, 1.030e-5
0.968, 1.042e-5
0.972, 1.028e-5
0.976, 1.037e-5
0.980, 1.037e-5
0.984, 1.032e-5
0.988, 1.034e-5
0.992, 1.024e-5
0.996, 1.022e-5
1.000, 1.028e-5
