July 24, 2025   11:58:03
Differential Pulse Voltammetry
File: e:\Data Source:  Experiment
Instrument Model:  CHI620E
Header: 
Note: 

Init E (V) = 0
Final E (V) = 1
Incr E (V) = 0.004
Amplitude (V) = 0.05
Pulse Width (sec) = 0.05
Sample Width (sec) = 0.0167
Pulse Period (sec) = 0.5
Quiet Time (sec) = 2
Sensitivity (A/V) = 0.01

Results:

Channel 1:
Ep = 0.540V
ip = 2.428e-5A
Ap = 2.643e-6VA

Potential/V, Current/A

0.004, 1.210e-5
0.008, 1.112e-5
0.012, 1.061e-5
0.016, 1.004e-5
0.020, 9.618e-6
0.024, 9.382e-6
0.028, 9.100e-6
0.032, 8.970e-6
0.036, 8.711e-6
0.040, 8.605e-6
0.044, 8.535e-6
0.048, 8.323e-6
0.052, 8.087e-6
0.056, 7.864e-6
0.060, 7.628e-6
0.064, 7.487e-6
0.068, 7.322e-6
0.072, 7.228e-6
0.076, 7.098e-6
0.080, 6.910e-6
0.084, 6.757e-6
0.088, 6.616e-6
0.092, 6.416e-6
0.096, 6.392e-6
0.100, 6.227e-6
0.104, 6.180e-6
0.108, 6.098e-6
0.112, 5.945e-6
0.116, 5.756e-6
0.120, 5.486e-6
0.124, 5.651e-6
0.128, 5.439e-6
0.132, 5.286e-6
0.136, 5.215e-6
0.140, 5.309e-6
0.144, 5.109e-6
0.148, 5.003e-6
0.152, 5.191e-6
0.156, 5.003e-6
0.160, 5.015e-6
0.164, 4.803e-6
0.168, 4.815e-6
0.172, 4.779e-6
0.176, 4.756e-6
0.180, 4.709e-6
0.184, 4.662e-6
0.188, 4.685e-6
0.192, 4.473e-6
0.196, 4.450e-6
0.200, 4.356e-6
0.204, 4.356e-6
0.208, 4.379e-6
0.212, 4.297e-6
0.216, 4.309e-6
0.220, 4.250e-6
0.224, 4.273e-6
0.228, 4.156e-6
0.232, 4.191e-6
0.236, 4.167e-6
0.240, 4.203e-6
0.244, 4.002e-6
0.248, 3.932e-6
0.252, 4.061e-6
0.256, 4.108e-6
0.260, 3.897e-6
0.264, 4.014e-6
0.268, 4.050e-6
0.272, 3.908e-6
0.276, 3.873e-6
0.280, 3.897e-6
0.284, 3.814e-6
0.288, 3.814e-6
0.292, 3.814e-6
0.296, 3.720e-6
0.300, 3.802e-6
0.304, 3.743e-6
0.308, 3.661e-6
0.312, 3.567e-6
0.316, 3.649e-6
0.320, 3.649e-6
0.324, 3.590e-6
0.328, 3.626e-6
0.332, 3.579e-6
0.336, 3.555e-6
0.340, 3.555e-6
0.344, 3.414e-6
0.348, 3.520e-6
0.352, 3.426e-6
0.356, 3.331e-6
0.360, 3.449e-6
0.364, 3.402e-6
0.368, 3.449e-6
0.372, 3.273e-6
0.376, 3.343e-6
0.380, 3.296e-6
0.384, 3.355e-6
0.388, 3.320e-6
0.392, 3.414e-6
0.396, 3.355e-6
0.400, 3.308e-6
0.404, 3.437e-6
0.408, 3.402e-6
0.412, 3.543e-6
0.416, 3.473e-6
0.420, 3.567e-6
0.424, 3.567e-6
0.428, 3.791e-6
0.432, 3.861e-6
0.436, 4.085e-6
0.440, 4.038e-6
0.444, 4.556e-6
0.448, 4.779e-6
0.452, 5.191e-6
0.456, 5.474e-6
0.460, 6.145e-6
0.464, 6.840e-6
0.468, 7.711e-6
0.472, 8.535e-6
0.476, 9.629e-6
0.480, 1.094e-5
0.484, 1.251e-5
0.488, 1.444e-5
0.492, 1.650e-5
0.496, 1.889e-5
0.500, 2.132e-5
0.504, 2.390e-5
0.508, 2.655e-5
0.512, 2.927e-5
0.516, 3.157e-5
0.520, 3.371e-5
0.524, 3.527e-5
0.528, 3.648e-5
0.532, 3.725e-5
0.536, 3.767e-5
0.540, 3.778e-5
0.544, 3.759e-5
0.548, 3.719e-5
0.552, 3.659e-5
0.556, 3.608e-5
0.560, 3.554e-5
0.564, 3.496e-5
0.568, 3.453e-5
0.572, 3.426e-5
0.576, 3.379e-5
0.580, 3.363e-5
0.584, 3.323e-5
0.588, 3.295e-5
0.592, 3.270e-5
0.596, 3.235e-5
0.600, 3.181e-5
0.604, 3.164e-5
0.608, 3.123e-5
0.612, 3.067e-5
0.616, 3.008e-5
0.620, 2.945e-5
0.624, 2.892e-5
0.628, 2.837e-5
0.632, 2.781e-5
0.636, 2.739e-5
0.640, 2.703e-5
0.644, 2.648e-5
0.648, 2.611e-5
0.652, 2.595e-5
0.656, 2.553e-5
0.660, 2.522e-5
0.664, 2.473e-5
0.668, 2.458e-5
0.672, 2.431e-5
0.676, 2.407e-5
0.680, 2.387e-5
0.684, 2.351e-5
0.688, 2.340e-5
0.692, 2.311e-5
0.696, 2.285e-5
0.700, 2.276e-5
0.704, 2.248e-5
0.708, 2.200e-5
0.712, 2.159e-5
0.716, 2.130e-5
0.720, 2.107e-5
0.724, 2.053e-5
0.728, 2.015e-5
0.732, 1.981e-5
0.736, 1.925e-5
0.740, 1.891e-5
0.744, 1.842e-5
0.748, 1.796e-5
0.752, 1.756e-5
0.756, 1.702e-5
0.760, 1.654e-5
0.764, 1.614e-5
0.768, 1.561e-5
0.772, 1.524e-5
0.776, 1.495e-5
0.780, 1.462e-5
0.784, 1.421e-5
0.788, 1.384e-5
0.792, 1.353e-5
0.796, 1.322e-5
0.800, 1.288e-5
0.804, 1.249e-5
0.808, 1.238e-5
0.812, 1.209e-5
0.816, 1.188e-5
0.820, 1.160e-5
0.824, 1.122e-5
0.828, 1.128e-5
0.832, 1.107e-5
0.836, 1.081e-5
0.840, 1.070e-5
0.844, 1.048e-5
0.848, 1.031e-5
0.852, 1.028e-5
0.856, 1.019e-5
0.860, 1.012e-5
0.864, 9.936e-6
0.868, 9.900e-6
0.872, 9.712e-6
0.876, 9.653e-6
0.880, 9.688e-6
0.884, 9.524e-6
0.888, 9.453e-6
0.892, 9.406e-6
0.896, 9.406e-6
0.900, 9.453e-6
0.904, 9.418e-6
0.908, 9.465e-6
0.912, 9.370e-6
0.916, 9.312e-6
0.920, 9.406e-6
0.924, 9.347e-6
0.928, 9.429e-6
0.932, 9.429e-6
0.936, 9.335e-6
0.940, 9.465e-6
0.944, 9.488e-6
0.948, 9.465e-6
0.952, 9.547e-6
0.956, 9.606e-6
0.960, 9.559e-6
0.964, 9.500e-6
0.968, 9.559e-6
0.972, 9.559e-6
0.976, 9.653e-6
0.980, 9.606e-6
0.984, 9.547e-6
0.988, 9.559e-6
0.992, 9.547e-6
0.996, 9.488e-6
1.000, 9.406e-6
