July 25, 2025   11:10:00
Differential Pulse Voltammetry
File: e:\Data Source:  Experiment
Instrument Model:  CHI620E
Header: 
Note: 

Init E (V) = 0
Final E (V) = 1
Incr E (V) = 0.004
Amplitude (V) = 0.05
Pulse Width (sec) = 0.05
Sample Width (sec) = 0.0167
Pulse Period (sec) = 0.5
Quiet Time (sec) = 2
Sensitivity (A/V) = 0.01

Results:

Channel 1:

Potential/V, Current/A

0.004, 7.793e-6
0.008, 6.957e-6
0.012, 7.228e-6
0.016, 6.675e-6
0.020, 6.828e-6
0.024, 6.533e-6
0.028, 6.686e-6
0.032, 6.475e-6
0.036, 6.157e-6
0.040, 6.145e-6
0.044, 6.345e-6
0.048, 6.051e-6
0.052, 6.286e-6
0.056, 5.615e-6
0.060, 6.475e-6
0.064, 5.686e-6
0.068, 6.263e-6
0.072, 5.745e-6
0.076, 6.110e-6
0.080, 5.627e-6
0.084, 5.910e-6
0.088, 6.098e-6
0.092, 5.368e-6
0.096, 5.639e-6
0.100, 5.651e-6
0.104, 5.921e-6
0.108, 5.156e-6
0.112, 5.886e-6
0.116, 5.097e-6
0.120, 5.380e-6
0.124, 4.838e-6
0.128, 5.356e-6
0.132, 4.709e-6
0.136, 4.838e-6
0.140, 5.333e-6
0.144, 4.685e-6
0.148, 4.862e-6
0.152, 4.768e-6
0.156, 4.756e-6
0.160, 4.932e-6
0.164, 4.250e-6
0.168, 4.850e-6
0.172, 4.191e-6
0.176, 4.838e-6
0.180, 4.226e-6
0.184, 4.026e-6
0.188, 4.626e-6
0.192, 3.696e-6
0.196, 4.344e-6
0.200, 4.097e-6
0.204, 4.097e-6
0.208, 4.438e-6
0.212, 3.590e-6
0.216, 3.802e-6
0.220, 3.802e-6
0.224, 3.414e-6
0.228, 3.920e-6
0.232, 3.473e-6
0.236, 3.849e-6
0.240, 3.120e-6
0.244, 3.767e-6
0.248, 3.072e-6
0.252, 3.732e-6
0.256, 3.355e-6
0.260, 3.673e-6
0.264, 3.226e-6
0.268, 3.696e-6
0.272, 3.190e-6
0.276, 3.767e-6
0.280, 2.908e-6
0.284, 3.379e-6
0.288, 3.614e-6
0.292, 3.284e-6
0.296, 3.261e-6
0.300, 3.473e-6
0.304, 3.167e-6
0.308, 3.379e-6
0.312, 2.872e-6
0.316, 3.167e-6
0.320, 2.931e-6
0.324, 2.861e-6
0.328, 3.072e-6
0.332, 2.602e-6
0.336, 9.418e-7
0.340, 2.967e-6
0.344, 3.049e-6
0.348, 2.919e-6
0.352, 3.190e-6
0.356, 3.025e-6
0.360, 3.579e-6
0.364, 2.613e-6
0.368, 3.614e-6
0.372, 1.895e-6
0.376, 3.343e-6
0.380, 2.813e-6
0.384, 3.284e-6
0.388, 2.543e-6
0.392, 2.731e-6
0.396, 3.861e-6
0.400, 1.283e-6
0.404, 2.319e-6
0.408, 2.849e-6
0.412, 3.014e-6
0.416, 3.072e-6
0.420, 3.084e-6
0.424, 2.366e-6
0.428, 2.849e-6
0.432, 3.049e-6
0.436, 3.202e-6
0.440, 3.108e-6
0.444, 4.426e-6
0.448, 4.226e-6
0.452, 2.943e-6
0.456, 3.367e-6
0.460, 3.273e-6
0.464, 3.131e-6
0.468, 3.567e-6
0.472, 3.849e-6
0.476, 3.661e-6
0.480, 4.050e-6
0.484, 4.485e-6
0.488, 4.403e-6
0.492, 5.097e-6
0.496, 5.733e-6
0.500, 6.274e-6
0.504, 6.557e-6
0.508, 7.934e-6
0.512, 1.178e-5
0.516, 1.255e-5
0.520, 1.321e-5
0.524, 1.775e-5
0.528, 2.068e-5
0.532, 2.045e-5
0.536, 2.002e-5
0.540, 1.746e-5
0.544, 1.702e-5
0.548, 1.831e-5
0.552, 1.730e-5
0.556, 1.694e-5
0.560, 1.621e-5
0.564, 1.580e-5
0.568, 1.515e-5
0.572, 1.461e-5
0.576, 1.499e-5
0.580, 1.435e-5
0.584, 1.399e-5
0.588, 1.391e-5
0.592, 1.420e-5
0.596, 1.314e-5
0.600, 1.261e-5
0.604, 1.263e-5
0.608, 1.283e-5
0.612, 1.227e-5
0.616, 1.210e-5
0.620, 1.242e-5
0.624, 1.203e-5
0.628, 1.192e-5
0.632, 1.210e-5
0.636, 1.147e-5
0.640, 1.222e-5
0.644, 1.108e-5
0.648, 1.328e-5
0.652, 1.282e-5
0.656, 1.107e-5
0.660, 1.030e-5
0.664, 1.124e-5
0.668, 1.134e-5
0.672, 1.100e-5
0.676, 1.092e-5
0.680, 1.104e-5
0.684, 1.083e-5
0.688, 1.128e-5
0.692, 1.149e-5
0.696, 1.205e-5
0.700, 1.114e-5
0.704, 1.083e-5
0.708, 9.665e-6
0.712, 9.641e-6
0.716, 1.010e-5
0.720, 9.877e-6
0.724, 9.877e-6
0.728, 9.877e-6
0.732, 9.888e-6
0.736, 1.009e-5
0.740, 9.606e-6
0.744, 1.014e-5
0.748, 1.069e-5
0.752, 1.084e-5
0.756, 1.056e-5
0.760, 7.369e-6
0.764, 8.688e-6
0.768, 9.312e-6
0.772, 8.864e-6
0.776, 8.582e-6
0.780, 8.911e-6
0.784, 8.853e-6
0.788, 9.064e-6
0.792, 9.135e-6
0.796, 8.652e-6
0.800, 8.829e-6
0.804, 9.006e-6
0.808, 8.382e-6
0.812, 8.782e-6
0.816, 8.287e-6
0.820, 6.651e-6
0.824, 9.253e-6
0.828, 8.182e-6
0.832, 1.008e-5
0.836, 6.781e-6
0.840, 6.816e-6
0.844, 9.300e-6
0.848, 6.604e-6
0.852, 6.545e-6
0.856, 8.723e-6
0.860, 8.558e-6
0.864, 7.781e-6
0.868, 8.182e-6
0.872, 7.899e-6
0.876, 9.759e-6
0.880, 8.217e-6
0.884, 8.523e-6
0.888, 9.641e-6
0.892, 8.864e-6
0.896, 8.452e-6
0.900, 8.888e-6
0.904, 7.793e-6
0.908, 9.735e-6
0.912, 8.805e-6
0.916, 9.888e-6
0.920, 9.123e-6
0.924, 8.923e-6
0.928, 8.629e-6
0.932, 1.048e-5
0.936, 9.241e-6
0.940, 8.582e-6
0.944, 9.312e-6
0.948, 9.017e-6
0.952, 8.970e-6
0.956, 9.370e-6
0.960, 9.359e-6
0.964, 8.711e-6
0.968, 9.029e-6
0.972, 8.923e-6
0.976, 8.982e-6
0.980, 8.782e-6
0.984, 9.135e-6
0.988, 8.817e-6
0.992, 9.217e-6
0.996, 9.312e-6
1.000, 9.382e-6
