July 15, 2025   16:35:07
Differential Pulse Voltammetry
File: e:\Data Source:  Experiment
Instrument Model:  CHI620E
Header: 
Note: 

Init E (V) = 0
Final E (V) = 1
Incr E (V) = 0.004
Amplitude (V) = 0.05
Pulse Width (sec) = 0.05
Sample Width (sec) = 0.0167
Pulse Period (sec) = 0.5
Quiet Time (sec) = 2
Sensitivity (A/V) = 0.01

Results:

Channel 1:
Ep = 0.576V
ip = 1.307e-5A
Ap = 5.880e-7VA

Potential/V, Current/A

0.004, 2.404e-5
0.008, 2.218e-5
0.012, 2.071e-5
0.016, 1.906e-5
0.020, 1.749e-5
0.024, 1.607e-5
0.028, 1.530e-5
0.032, 1.466e-5
0.036, 1.386e-5
0.040, 1.356e-5
0.044, 1.334e-5
0.048, 1.276e-5
0.052, 1.249e-5
0.056, 1.202e-5
0.060, 1.181e-5
0.064, 1.143e-5
0.068, 1.118e-5
0.072, 1.092e-5
0.076, 1.065e-5
0.080, 1.028e-5
0.084, 9.936e-6
0.088, 9.618e-6
0.092, 9.618e-6
0.096, 9.312e-6
0.100, 9.135e-6
0.104, 8.900e-6
0.108, 8.876e-6
0.112, 8.429e-6
0.116, 8.346e-6
0.120, 8.040e-6
0.124, 8.111e-6
0.128, 7.852e-6
0.132, 7.711e-6
0.136, 7.440e-6
0.140, 7.416e-6
0.144, 7.346e-6
0.148, 7.134e-6
0.152, 6.993e-6
0.156, 7.028e-6
0.160, 6.804e-6
0.164, 6.722e-6
0.168, 6.604e-6
0.172, 6.604e-6
0.176, 6.510e-6
0.180, 6.380e-6
0.184, 6.015e-6
0.188, 6.216e-6
0.192, 6.086e-6
0.196, 5.804e-6
0.200, 5.745e-6
0.204, 5.898e-6
0.208, 5.768e-6
0.212, 5.615e-6
0.216, 5.474e-6
0.220, 5.533e-6
0.224, 5.415e-6
0.228, 5.274e-6
0.232, 5.297e-6
0.236, 5.168e-6
0.240, 5.250e-6
0.244, 5.062e-6
0.248, 4.897e-6
0.252, 5.027e-6
0.256, 5.180e-6
0.260, 4.862e-6
0.264, 4.862e-6
0.268, 4.980e-6
0.272, 4.944e-6
0.276, 4.897e-6
0.280, 4.709e-6
0.284, 4.803e-6
0.288, 4.732e-6
0.292, 4.756e-6
0.296, 4.591e-6
0.300, 4.768e-6
0.304, 4.556e-6
0.308, 4.520e-6
0.312, 4.379e-6
0.316, 4.509e-6
0.320, 4.462e-6
0.324, 4.450e-6
0.328, 4.462e-6
0.332, 4.438e-6
0.336, 4.438e-6
0.340, 4.273e-6
0.344, 4.226e-6
0.348, 4.438e-6
0.352, 4.226e-6
0.356, 4.191e-6
0.360, 4.297e-6
0.364, 4.332e-6
0.368, 4.226e-6
0.372, 4.191e-6
0.376, 4.167e-6
0.380, 4.261e-6
0.384, 4.320e-6
0.388, 4.273e-6
0.392, 4.085e-6
0.396, 4.097e-6
0.400, 4.179e-6
0.404, 4.214e-6
0.408, 4.250e-6
0.412, 4.250e-6
0.416, 4.156e-6
0.420, 4.167e-6
0.424, 4.250e-6
0.428, 4.309e-6
0.432, 4.191e-6
0.436, 4.391e-6
0.440, 4.285e-6
0.444, 4.285e-6
0.448, 4.309e-6
0.452, 4.414e-6
0.456, 4.568e-6
0.460, 4.556e-6
0.464, 4.827e-6
0.468, 4.956e-6
0.472, 5.144e-6
0.476, 5.297e-6
0.480, 5.603e-6
0.484, 5.874e-6
0.488, 6.286e-6
0.492, 6.734e-6
0.496, 7.310e-6
0.500, 8.040e-6
0.504, 8.829e-6
0.508, 1.018e-5
0.512, 1.144e-5
0.516, 1.303e-5
0.520, 1.501e-5
0.524, 1.762e-5
0.528, 2.027e-5
0.532, 2.304e-5
0.536, 2.645e-5
0.540, 3.003e-5
0.544, 3.415e-5
0.548, 3.800e-5
0.552, 4.188e-5
0.556, 4.546e-5
0.560, 4.818e-5
0.564, 5.043e-5
0.568, 5.193e-5
0.572, 5.279e-5
0.576, 5.290e-5
0.580, 5.240e-5
0.584, 5.121e-5
0.588, 5.040e-5
0.592, 4.950e-5
0.596, 4.916e-5
0.600, 4.895e-5
0.604, 4.915e-5
0.608, 4.940e-5
0.612, 4.964e-5
0.616, 5.009e-5
0.620, 5.044e-5
0.624, 5.102e-5
0.628, 5.135e-5
0.632, 5.184e-5
0.636, 5.226e-5
0.640, 5.267e-5
0.644, 5.313e-5
0.648, 5.354e-5
0.652, 5.423e-5
0.656, 5.476e-5
0.660, 5.527e-5
0.664, 5.599e-5
0.668, 5.652e-5
0.672, 5.720e-5
0.676, 5.765e-5
0.680, 5.807e-5
0.684, 5.868e-5
0.688, 5.912e-5
0.692, 5.938e-5
0.696, 5.954e-5
0.700, 5.971e-5
0.704, 5.968e-5
0.708, 5.945e-5
0.712, 5.939e-5
0.716, 5.911e-5
0.720, 5.874e-5
0.724, 5.834e-5
0.728, 5.764e-5
0.732, 5.702e-5
0.736, 5.640e-5
0.740, 5.543e-5
0.744, 5.447e-5
0.748, 5.337e-5
0.752, 5.230e-5
0.756, 5.095e-5
0.760, 4.982e-5
0.764, 4.836e-5
0.768, 4.684e-5
0.772, 4.535e-5
0.776, 4.397e-5
0.780, 4.245e-5
0.784, 4.098e-5
0.788, 3.946e-5
0.792, 3.796e-5
0.796, 3.655e-5
0.800, 3.502e-5
0.804, 3.360e-5
0.808, 3.234e-5
0.812, 3.105e-5
0.816, 2.991e-5
0.820, 2.878e-5
0.824, 2.757e-5
0.828, 2.656e-5
0.832, 2.580e-5
0.836, 2.476e-5
0.840, 2.410e-5
0.844, 2.334e-5
0.848, 2.272e-5
0.852, 2.193e-5
0.856, 2.135e-5
0.860, 2.080e-5
0.864, 2.044e-5
0.868, 1.984e-5
0.872, 1.944e-5
0.876, 1.914e-5
0.880, 1.882e-5
0.884, 1.851e-5
0.888, 1.812e-5
0.892, 1.795e-5
0.896, 1.760e-5
0.900, 1.742e-5
0.904, 1.727e-5
0.908, 1.710e-5
0.912, 1.708e-5
0.916, 1.690e-5
0.920, 1.667e-5
0.924, 1.681e-5
0.928, 1.667e-5
0.932, 1.650e-5
0.936, 1.657e-5
0.940, 1.675e-5
0.944, 1.668e-5
0.948, 1.649e-5
0.952, 1.653e-5
0.956, 1.662e-5
0.960, 1.674e-5
0.964, 1.679e-5
0.968, 1.660e-5
0.972, 1.682e-5
0.976, 1.693e-5
0.980, 1.709e-5
0.984, 1.714e-5
0.988, 1.722e-5
0.992, 1.734e-5
0.996, 1.733e-5
1.000, 1.755e-5
