July 25, 2025   12:44:44
Differential Pulse Voltammetry
File: e:\Data Source:  Experiment
Instrument Model:  CHI620E
Header: 
Note: 

Init E (V) = 0
Final E (V) = 1
Incr E (V) = 0.004
Amplitude (V) = 0.05
Pulse Width (sec) = 0.05
Sample Width (sec) = 0.0167
Pulse Period (sec) = 0.5
Quiet Time (sec) = 2
Sensitivity (A/V) = 0.01

Results:

Channel 1:
Ep = 0.704V
ip = 1.758e-5A
Ap = 1.625e-6VA

Potential/V, Current/A

0.004, 8.758e-6
0.008, 8.217e-6
0.012, 7.899e-6
0.016, 7.134e-6
0.020, 6.651e-6
0.024, 6.628e-6
0.028, 6.510e-6
0.032, 6.216e-6
0.036, 6.133e-6
0.040, 5.980e-6
0.044, 6.121e-6
0.048, 6.074e-6
0.052, 6.063e-6
0.056, 5.792e-6
0.060, 5.721e-6
0.064, 5.933e-6
0.068, 5.698e-6
0.072, 5.603e-6
0.076, 5.615e-6
0.080, 5.627e-6
0.084, 5.545e-6
0.088, 5.344e-6
0.092, 5.427e-6
0.096, 5.403e-6
0.100, 5.191e-6
0.104, 5.215e-6
0.108, 5.356e-6
0.112, 5.250e-6
0.116, 5.050e-6
0.120, 5.015e-6
0.124, 5.109e-6
0.128, 5.085e-6
0.132, 4.944e-6
0.136, 5.062e-6
0.140, 5.015e-6
0.144, 4.932e-6
0.148, 4.956e-6
0.152, 4.980e-6
0.156, 4.921e-6
0.160, 4.980e-6
0.164, 4.921e-6
0.168, 4.803e-6
0.172, 4.932e-6
0.176, 4.921e-6
0.180, 4.932e-6
0.184, 4.662e-6
0.188, 4.638e-6
0.192, 4.532e-6
0.196, 4.626e-6
0.200, 4.662e-6
0.204, 4.662e-6
0.208, 4.509e-6
0.212, 4.379e-6
0.216, 4.332e-6
0.220, 4.379e-6
0.224, 4.073e-6
0.228, 4.191e-6
0.232, 4.226e-6
0.236, 4.120e-6
0.240, 4.061e-6
0.244, 4.191e-6
0.248, 3.755e-6
0.252, 3.967e-6
0.256, 3.932e-6
0.260, 3.885e-6
0.264, 3.661e-6
0.268, 3.826e-6
0.272, 3.791e-6
0.276, 3.743e-6
0.280, 3.390e-6
0.284, 3.661e-6
0.288, 3.555e-6
0.292, 3.437e-6
0.296, 3.296e-6
0.300, 3.320e-6
0.304, 3.261e-6
0.308, 3.143e-6
0.312, 3.178e-6
0.316, 3.167e-6
0.320, 3.096e-6
0.324, 3.296e-6
0.328, 3.143e-6
0.332, 2.908e-6
0.336, 3.167e-6
0.340, 2.978e-6
0.344, 2.861e-6
0.348, 2.978e-6
0.352, 3.072e-6
0.356, 2.825e-6
0.360, 2.660e-6
0.364, 2.943e-6
0.368, 2.931e-6
0.372, 2.708e-6
0.376, 2.766e-6
0.380, 2.943e-6
0.384, 2.861e-6
0.388, 2.613e-6
0.392, 2.731e-6
0.396, 2.590e-6
0.400, 2.919e-6
0.404, 2.790e-6
0.408, 2.590e-6
0.412, 2.696e-6
0.416, 2.602e-6
0.420, 2.578e-6
0.424, 2.390e-6
0.428, 2.543e-6
0.432, 2.637e-6
0.436, 2.649e-6
0.440, 2.413e-6
0.444, 2.566e-6
0.448, 2.484e-6
0.452, 2.437e-6
0.456, 2.484e-6
0.460, 2.531e-6
0.464, 2.531e-6
0.468, 2.213e-6
0.472, 2.390e-6
0.476, 2.425e-6
0.480, 2.425e-6
0.484, 2.307e-6
0.488, 2.472e-6
0.492, 2.437e-6
0.496, 2.496e-6
0.500, 2.296e-6
0.504, 2.590e-6
0.508, 2.401e-6
0.512, 2.331e-6
0.516, 2.307e-6
0.520, 2.307e-6
0.524, 2.296e-6
0.528, 2.272e-6
0.532, 2.437e-6
0.536, 2.413e-6
0.540, 2.260e-6
0.544, 2.401e-6
0.548, 2.578e-6
0.552, 2.319e-6
0.556, 2.260e-6
0.560, 2.543e-6
0.564, 2.484e-6
0.568, 2.484e-6
0.572, 2.708e-6
0.576, 2.602e-6
0.580, 2.637e-6
0.584, 2.978e-6
0.588, 2.931e-6
0.592, 2.978e-6
0.596, 3.167e-6
0.600, 3.367e-6
0.604, 3.567e-6
0.608, 3.708e-6
0.612, 4.038e-6
0.616, 4.603e-6
0.620, 4.850e-6
0.624, 5.333e-6
0.628, 6.004e-6
0.632, 6.840e-6
0.636, 7.664e-6
0.640, 8.947e-6
0.644, 1.031e-5
0.648, 1.196e-5
0.652, 1.420e-5
0.656, 1.665e-5
0.660, 1.931e-5
0.664, 2.204e-5
0.668, 2.456e-5
0.672, 2.700e-5
0.676, 2.905e-5
0.680, 3.044e-5
0.684, 3.161e-5
0.688, 3.233e-5
0.692, 3.293e-5
0.696, 3.291e-5
0.700, 3.329e-5
0.704, 3.331e-5
0.708, 3.294e-5
0.712, 3.283e-5
0.716, 3.278e-5
0.720, 3.230e-5
0.724, 3.215e-5
0.728, 3.174e-5
0.732, 3.098e-5
0.736, 3.022e-5
0.740, 2.959e-5
0.744, 2.894e-5
0.748, 2.830e-5
0.752, 2.805e-5
0.756, 2.781e-5
0.760, 2.730e-5
0.764, 2.691e-5
0.768, 2.669e-5
0.772, 2.623e-5
0.776, 2.619e-5
0.780, 2.603e-5
0.784, 2.563e-5
0.788, 2.538e-5
0.792, 2.535e-5
0.796, 2.506e-5
0.800, 2.478e-5
0.804, 2.482e-5
0.808, 2.476e-5
0.812, 2.464e-5
0.816, 2.474e-5
0.820, 2.460e-5
0.824, 2.463e-5
0.828, 2.467e-5
0.832, 2.459e-5
0.836, 2.470e-5
0.840, 2.491e-5
0.844, 2.491e-5
0.848, 2.500e-5
0.852, 2.504e-5
0.856, 2.532e-5
0.860, 2.526e-5
0.864, 2.539e-5
0.868, 2.527e-5
0.872, 2.546e-5
0.876, 2.549e-5
0.880, 2.538e-5
0.884, 2.539e-5
0.888, 2.551e-5
0.892, 2.529e-5
0.896, 2.509e-5
0.900, 2.464e-5
0.904, 2.450e-5
0.908, 2.439e-5
0.912, 2.385e-5
0.916, 2.346e-5
0.920, 2.288e-5
0.924, 2.253e-5
0.928, 2.199e-5
0.932, 2.114e-5
0.936, 2.067e-5
0.940, 2.019e-5
0.944, 1.952e-5
0.948, 1.893e-5
0.952, 1.818e-5
0.956, 1.767e-5
0.960, 1.696e-5
0.964, 1.623e-5
0.968, 1.570e-5
0.972, 1.535e-5
0.976, 1.471e-5
0.980, 1.431e-5
0.984, 1.388e-5
0.988, 1.341e-5
0.992, 1.308e-5
0.996, 1.264e-5
1.000, 1.224e-5
