July 21, 2025   19:32:44
Differential Pulse Voltammetry
File: e:\Data Source:  Experiment
Instrument Model:  CHI620E
Header: 
Note: 

Init E (V) = 0
Final E (V) = 1
Incr E (V) = 0.004
Amplitude (V) = 0.05
Pulse Width (sec) = 0.05
Sample Width (sec) = 0.0167
Pulse Period (sec) = 0.5
Quiet Time (sec) = 2
Sensitivity (A/V) = 0.01

Results:

Channel 1:
Ep = 0.780V
ip = 4.111e-5A
Ap = 5.938e-6VA

Potential/V, Current/A

0.004, 6.533e-6
0.008, 6.145e-6
0.012, 5.733e-6
0.016, 5.450e-6
0.020, 5.392e-6
0.024, 5.027e-6
0.028, 4.968e-6
0.032, 5.027e-6
0.036, 4.779e-6
0.040, 4.779e-6
0.044, 4.520e-6
0.048, 4.462e-6
0.052, 4.320e-6
0.056, 4.261e-6
0.060, 4.438e-6
0.064, 4.214e-6
0.068, 4.214e-6
0.072, 4.203e-6
0.076, 4.179e-6
0.080, 4.167e-6
0.084, 4.214e-6
0.088, 4.120e-6
0.092, 3.967e-6
0.096, 4.085e-6
0.100, 4.050e-6
0.104, 4.061e-6
0.108, 4.179e-6
0.112, 4.156e-6
0.116, 4.061e-6
0.120, 4.120e-6
0.124, 4.238e-6
0.128, 4.297e-6
0.132, 4.226e-6
0.136, 4.214e-6
0.140, 4.226e-6
0.144, 4.120e-6
0.148, 4.309e-6
0.152, 4.097e-6
0.156, 4.379e-6
0.160, 4.320e-6
0.164, 4.238e-6
0.168, 4.367e-6
0.172, 4.332e-6
0.176, 4.344e-6
0.180, 4.309e-6
0.184, 4.238e-6
0.188, 4.344e-6
0.192, 4.332e-6
0.196, 4.120e-6
0.200, 4.238e-6
0.204, 4.297e-6
0.208, 4.085e-6
0.212, 4.073e-6
0.216, 4.097e-6
0.220, 3.967e-6
0.224, 4.038e-6
0.228, 3.802e-6
0.232, 3.991e-6
0.236, 3.802e-6
0.240, 3.802e-6
0.244, 3.755e-6
0.248, 3.543e-6
0.252, 3.614e-6
0.256, 3.685e-6
0.260, 3.296e-6
0.264, 3.367e-6
0.268, 3.308e-6
0.272, 3.237e-6
0.276, 3.249e-6
0.280, 3.084e-6
0.284, 3.049e-6
0.288, 3.002e-6
0.292, 2.908e-6
0.296, 2.849e-6
0.300, 2.884e-6
0.304, 2.649e-6
0.308, 2.649e-6
0.312, 2.578e-6
0.316, 2.719e-6
0.320, 2.613e-6
0.324, 2.343e-6
0.328, 2.331e-6
0.332, 2.307e-6
0.336, 2.331e-6
0.340, 2.201e-6
0.344, 2.095e-6
0.348, 2.284e-6
0.352, 2.248e-6
0.356, 2.095e-6
0.360, 2.190e-6
0.364, 2.166e-6
0.368, 2.048e-6
0.372, 2.084e-6
0.376, 1.931e-6
0.380, 2.072e-6
0.384, 1.825e-6
0.388, 1.895e-6
0.392, 1.978e-6
0.396, 1.931e-6
0.400, 1.789e-6
0.404, 1.848e-6
0.408, 1.660e-6
0.412, 1.895e-6
0.416, 1.707e-6
0.420, 1.778e-6
0.424, 1.695e-6
0.428, 1.707e-6
0.432, 1.660e-6
0.436, 1.778e-6
0.440, 1.554e-6
0.444, 1.601e-6
0.448, 1.589e-6
0.452, 1.636e-6
0.456, 1.530e-6
0.460, 1.601e-6
0.464, 1.577e-6
0.468, 1.601e-6
0.472, 1.589e-6
0.476, 1.636e-6
0.480, 1.530e-6
0.484, 1.483e-6
0.488, 1.495e-6
0.492, 1.530e-6
0.496, 1.507e-6
0.500, 1.389e-6
0.504, 1.471e-6
0.508, 1.495e-6
0.512, 1.448e-6
0.516, 1.318e-6
0.520, 1.436e-6
0.524, 1.495e-6
0.528, 1.542e-6
0.532, 1.260e-6
0.536, 1.424e-6
0.540, 1.554e-6
0.544, 1.448e-6
0.548, 1.377e-6
0.552, 1.471e-6
0.556, 1.471e-6
0.560, 1.460e-6
0.564, 1.330e-6
0.568, 1.436e-6
0.572, 1.460e-6
0.576, 1.625e-6
0.580, 1.460e-6
0.584, 1.648e-6
0.588, 1.577e-6
0.592, 1.577e-6
0.596, 1.601e-6
0.600, 1.707e-6
0.604, 1.636e-6
0.608, 1.730e-6
0.612, 1.530e-6
0.616, 1.683e-6
0.620, 1.813e-6
0.624, 1.895e-6
0.628, 1.789e-6
0.632, 2.025e-6
0.636, 2.013e-6
0.640, 2.142e-6
0.644, 2.166e-6
0.648, 2.366e-6
0.652, 2.602e-6
0.656, 2.813e-6
0.660, 3.014e-6
0.664, 3.320e-6
0.668, 3.685e-6
0.672, 3.967e-6
0.676, 4.414e-6
0.680, 4.791e-6
0.684, 5.180e-6
0.688, 5.792e-6
0.692, 6.557e-6
0.696, 7.287e-6
0.700, 8.805e-6
0.704, 1.025e-5
0.708, 1.198e-5
0.712, 1.399e-5
0.716, 1.614e-5
0.720, 1.866e-5
0.724, 2.166e-5
0.728, 2.572e-5
0.732, 3.012e-5
0.736, 3.467e-5
0.740, 3.801e-5
0.744, 4.007e-5
0.748, 4.174e-5
0.752, 4.333e-5
0.756, 4.470e-5
0.760, 4.596e-5
0.764, 4.709e-5
0.768, 4.794e-5
0.772, 4.825e-5
0.776, 4.875e-5
0.780, 4.905e-5
0.784, 4.904e-5
0.788, 4.868e-5
0.792, 4.837e-5
0.796, 4.795e-5
0.800, 4.752e-5
0.804, 4.653e-5
0.808, 4.590e-5
0.812, 4.502e-5
0.816, 4.411e-5
0.820, 4.289e-5
0.824, 4.188e-5
0.828, 4.078e-5
0.832, 3.960e-5
0.836, 3.839e-5
0.840, 3.700e-5
0.844, 3.594e-5
0.848, 3.472e-5
0.852, 3.368e-5
0.856, 3.248e-5
0.860, 3.141e-5
0.864, 3.061e-5
0.868, 2.954e-5
0.872, 2.872e-5
0.876, 2.812e-5
0.880, 2.723e-5
0.884, 2.652e-5
0.888, 2.577e-5
0.892, 2.514e-5
0.896, 2.469e-5
0.900, 2.386e-5
0.904, 2.334e-5
0.908, 2.278e-5
0.912, 2.239e-5
0.916, 2.163e-5
0.920, 2.091e-5
0.924, 2.066e-5
0.928, 2.012e-5
0.932, 1.975e-5
0.936, 1.919e-5
0.940, 1.889e-5
0.944, 1.855e-5
0.948, 1.807e-5
0.952, 1.750e-5
0.956, 1.723e-5
0.960, 1.702e-5
0.964, 1.661e-5
0.968, 1.635e-5
0.972, 1.596e-5
0.976, 1.579e-5
0.980, 1.544e-5
0.984, 1.520e-5
0.988, 1.508e-5
0.992, 1.495e-5
0.996, 1.467e-5
1.000, 1.443e-5
