July 21, 2025   19:28:23
Differential Pulse Voltammetry
File: e:\Data Source:  Experiment
Instrument Model:  CHI620E
Header: 
Note: 

Init E (V) = 0
Final E (V) = 1
Incr E (V) = 0.004
Amplitude (V) = 0.05
Pulse Width (sec) = 0.05
Sample Width (sec) = 0.0167
Pulse Period (sec) = 0.5
Quiet Time (sec) = 2
Sensitivity (A/V) = 0.01

Results:

Channel 1:
Ep = 0.192V
ip = 7.240e-7A
Ap = 9.511e-8VA

Ep = 0.776V
ip = 5.257e-5A
Ap = 8.916e-6VA

Potential/V, Current/A

0.004, 6.204e-6
0.008, 5.780e-6
0.012, 5.462e-6
0.016, 5.227e-6
0.020, 5.015e-6
0.024, 4.956e-6
0.028, 4.921e-6
0.032, 4.803e-6
0.036, 4.638e-6
0.040, 4.650e-6
0.044, 4.591e-6
0.048, 4.650e-6
0.052, 4.391e-6
0.056, 4.403e-6
0.060, 4.309e-6
0.064, 4.403e-6
0.068, 4.108e-6
0.072, 4.050e-6
0.076, 4.026e-6
0.080, 4.073e-6
0.084, 4.050e-6
0.088, 3.991e-6
0.092, 4.026e-6
0.096, 4.061e-6
0.100, 3.979e-6
0.104, 4.061e-6
0.108, 4.002e-6
0.112, 3.991e-6
0.116, 4.002e-6
0.120, 4.014e-6
0.124, 4.061e-6
0.128, 4.120e-6
0.132, 3.920e-6
0.136, 4.132e-6
0.140, 4.002e-6
0.144, 4.120e-6
0.148, 4.097e-6
0.152, 4.097e-6
0.156, 4.120e-6
0.160, 4.108e-6
0.164, 4.167e-6
0.168, 4.179e-6
0.172, 4.191e-6
0.176, 4.238e-6
0.180, 4.273e-6
0.184, 4.179e-6
0.188, 4.226e-6
0.192, 4.356e-6
0.196, 4.203e-6
0.200, 4.144e-6
0.204, 4.297e-6
0.208, 4.203e-6
0.212, 4.144e-6
0.216, 4.144e-6
0.220, 4.156e-6
0.224, 4.167e-6
0.228, 4.144e-6
0.232, 4.073e-6
0.236, 4.085e-6
0.240, 4.050e-6
0.244, 4.026e-6
0.248, 3.826e-6
0.252, 3.967e-6
0.256, 3.932e-6
0.260, 3.849e-6
0.264, 3.720e-6
0.268, 3.767e-6
0.272, 3.755e-6
0.276, 3.720e-6
0.280, 3.579e-6
0.284, 3.520e-6
0.288, 3.543e-6
0.292, 3.708e-6
0.296, 3.379e-6
0.300, 3.496e-6
0.304, 3.343e-6
0.308, 3.473e-6
0.312, 3.343e-6
0.316, 3.202e-6
0.320, 3.202e-6
0.324, 3.167e-6
0.328, 3.120e-6
0.332, 3.131e-6
0.336, 3.037e-6
0.340, 3.061e-6
0.344, 3.037e-6
0.348, 2.955e-6
0.352, 3.049e-6
0.356, 2.908e-6
0.360, 2.919e-6
0.364, 2.943e-6
0.368, 2.967e-6
0.372, 2.919e-6
0.376, 2.743e-6
0.380, 2.908e-6
0.384, 2.802e-6
0.388, 2.778e-6
0.392, 2.708e-6
0.396, 2.837e-6
0.400, 2.719e-6
0.404, 2.755e-6
0.408, 2.613e-6
0.412, 2.778e-6
0.416, 2.637e-6
0.420, 2.696e-6
0.424, 2.555e-6
0.428, 2.637e-6
0.432, 2.555e-6
0.436, 2.672e-6
0.440, 2.413e-6
0.444, 2.613e-6
0.448, 2.731e-6
0.452, 2.260e-6
0.456, 2.590e-6
0.460, 2.401e-6
0.464, 2.437e-6
0.468, 2.449e-6
0.472, 2.260e-6
0.476, 2.390e-6
0.480, 2.413e-6
0.484, 2.331e-6
0.488, 2.331e-6
0.492, 2.296e-6
0.496, 2.413e-6
0.500, 2.248e-6
0.504, 2.307e-6
0.508, 2.331e-6
0.512, 2.437e-6
0.516, 2.084e-6
0.520, 2.354e-6
0.524, 2.296e-6
0.528, 2.413e-6
0.532, 2.154e-6
0.536, 2.319e-6
0.540, 2.343e-6
0.544, 2.272e-6
0.548, 2.366e-6
0.552, 2.378e-6
0.556, 2.578e-6
0.560, 2.307e-6
0.564, 2.390e-6
0.568, 2.401e-6
0.572, 2.672e-6
0.576, 2.672e-6
0.580, 2.625e-6
0.584, 2.766e-6
0.588, 2.802e-6
0.592, 3.084e-6
0.596, 2.978e-6
0.600, 3.249e-6
0.604, 3.414e-6
0.608, 3.638e-6
0.612, 3.967e-6
0.616, 4.085e-6
0.620, 4.885e-6
0.624, 5.215e-6
0.628, 5.886e-6
0.632, 6.722e-6
0.636, 8.158e-6
0.640, 9.806e-6
0.644, 1.177e-5
0.648, 1.459e-5
0.652, 1.735e-5
0.656, 1.961e-5
0.660, 2.180e-5
0.664, 2.353e-5
0.668, 2.531e-5
0.672, 2.690e-5
0.676, 2.810e-5
0.680, 2.903e-5
0.684, 2.967e-5
0.688, 2.999e-5
0.692, 3.050e-5
0.696, 3.091e-5
0.700, 3.184e-5
0.704, 3.287e-5
0.708, 3.397e-5
0.712, 3.550e-5
0.716, 3.722e-5
0.720, 3.920e-5
0.724, 4.157e-5
0.728, 4.414e-5
0.732, 4.689e-5
0.736, 4.943e-5
0.740, 5.140e-5
0.744, 5.324e-5
0.748, 5.503e-5
0.752, 5.665e-5
0.756, 5.801e-5
0.760, 5.913e-5
0.764, 6.004e-5
0.768, 6.060e-5
0.772, 6.079e-5
0.776, 6.118e-5
0.780, 6.103e-5
0.784, 6.073e-5
0.788, 6.032e-5
0.792, 5.958e-5
0.796, 5.862e-5
0.800, 5.762e-5
0.804, 5.668e-5
0.808, 5.570e-5
0.812, 5.433e-5
0.816, 5.280e-5
0.820, 5.141e-5
0.824, 4.961e-5
0.828, 4.795e-5
0.832, 4.624e-5
0.836, 4.437e-5
0.840, 4.279e-5
0.844, 4.092e-5
0.848, 3.933e-5
0.852, 3.775e-5
0.856, 3.610e-5
0.860, 3.466e-5
0.864, 3.334e-5
0.868, 3.193e-5
0.872, 3.087e-5
0.876, 2.989e-5
0.880, 2.884e-5
0.884, 2.802e-5
0.888, 2.711e-5
0.892, 2.628e-5
0.896, 2.555e-5
0.900, 2.485e-5
0.904, 2.403e-5
0.908, 2.343e-5
0.912, 2.287e-5
0.916, 2.231e-5
0.920, 2.161e-5
0.924, 2.100e-5
0.928, 2.052e-5
0.932, 1.986e-5
0.936, 1.936e-5
0.940, 1.908e-5
0.944, 1.860e-5
0.948, 1.815e-5
0.952, 1.780e-5
0.956, 1.739e-5
0.960, 1.713e-5
0.964, 1.655e-5
0.968, 1.646e-5
0.972, 1.594e-5
0.976, 1.573e-5
0.980, 1.574e-5
0.984, 1.535e-5
0.988, 1.522e-5
0.992, 1.500e-5
0.996, 1.468e-5
1.000, 1.454e-5
