July 12, 2025   21:28:54
Differential Pulse Voltammetry
File: e:\Data Source:  Experiment
Instrument Model:  CHI620E
Header: 
Note: 

Init E (V) = 0
Final E (V) = 1
Incr E (V) = 0.004
Amplitude (V) = 0.05
Pulse Width (sec) = 0.05
Sample Width (sec) = 0.0167
Pulse Period (sec) = 0.5
Quiet Time (sec) = 2
Sensitivity (A/V) = 0.01

Results:

Channel 1:
Ep = 0.660V
ip = 4.326e-5A
Ap = 2.091e-6VA

Potential/V, Current/A

0.004, 8.134e-6
0.008, 7.734e-6
0.012, 7.817e-6
0.016, 7.605e-6
0.020, 6.945e-6
0.024, 6.616e-6
0.028, 6.310e-6
0.032, 6.004e-6
0.036, 6.133e-6
0.040, 5.792e-6
0.044, 5.651e-6
0.048, 5.498e-6
0.052, 5.392e-6
0.056, 5.380e-6
0.060, 5.344e-6
0.064, 5.439e-6
0.068, 5.262e-6
0.072, 5.286e-6
0.076, 5.450e-6
0.080, 5.439e-6
0.084, 5.580e-6
0.088, 5.698e-6
0.092, 5.674e-6
0.096, 5.674e-6
0.100, 5.780e-6
0.104, 5.874e-6
0.108, 5.992e-6
0.112, 5.921e-6
0.116, 6.063e-6
0.120, 6.133e-6
0.124, 6.227e-6
0.128, 6.345e-6
0.132, 6.274e-6
0.136, 6.357e-6
0.140, 6.545e-6
0.144, 6.639e-6
0.148, 6.722e-6
0.152, 6.698e-6
0.156, 6.757e-6
0.160, 7.016e-6
0.164, 6.745e-6
0.168, 6.922e-6
0.172, 7.063e-6
0.176, 6.945e-6
0.180, 7.040e-6
0.184, 6.863e-6
0.188, 7.098e-6
0.192, 6.957e-6
0.196, 6.945e-6
0.200, 6.945e-6
0.204, 7.122e-6
0.208, 7.051e-6
0.212, 6.828e-6
0.216, 6.710e-6
0.220, 6.734e-6
0.224, 6.816e-6
0.228, 6.522e-6
0.232, 6.522e-6
0.236, 6.522e-6
0.240, 6.404e-6
0.244, 6.357e-6
0.248, 6.110e-6
0.252, 6.322e-6
0.256, 6.251e-6
0.260, 6.039e-6
0.264, 5.992e-6
0.268, 5.898e-6
0.272, 5.745e-6
0.276, 5.851e-6
0.280, 5.862e-6
0.284, 5.827e-6
0.288, 5.674e-6
0.292, 5.615e-6
0.296, 5.521e-6
0.300, 5.462e-6
0.304, 5.639e-6
0.308, 5.309e-6
0.312, 5.286e-6
0.316, 5.262e-6
0.320, 5.392e-6
0.324, 5.262e-6
0.328, 5.133e-6
0.332, 5.180e-6
0.336, 4.897e-6
0.340, 5.097e-6
0.344, 5.003e-6
0.348, 4.932e-6
0.352, 4.885e-6
0.356, 4.932e-6
0.360, 4.956e-6
0.364, 4.968e-6
0.368, 5.074e-6
0.372, 4.968e-6
0.376, 4.838e-6
0.380, 4.827e-6
0.384, 4.838e-6
0.388, 4.827e-6
0.392, 4.862e-6
0.396, 4.827e-6
0.400, 4.980e-6
0.404, 4.803e-6
0.408, 4.685e-6
0.412, 4.756e-6
0.416, 4.732e-6
0.420, 4.638e-6
0.424, 4.556e-6
0.428, 4.709e-6
0.432, 4.626e-6
0.436, 4.532e-6
0.440, 4.532e-6
0.444, 4.568e-6
0.448, 4.532e-6
0.452, 4.544e-6
0.456, 4.603e-6
0.460, 4.591e-6
0.464, 4.615e-6
0.468, 4.438e-6
0.472, 4.450e-6
0.476, 4.485e-6
0.480, 4.426e-6
0.484, 4.450e-6
0.488, 4.356e-6
0.492, 4.414e-6
0.496, 4.438e-6
0.500, 4.309e-6
0.504, 4.273e-6
0.508, 4.544e-6
0.512, 4.450e-6
0.516, 4.414e-6
0.520, 4.462e-6
0.524, 4.403e-6
0.528, 4.414e-6
0.532, 4.497e-6
0.536, 4.473e-6
0.540, 4.626e-6
0.544, 4.909e-6
0.548, 4.721e-6
0.552, 5.227e-6
0.556, 5.274e-6
0.560, 5.627e-6
0.564, 5.851e-6
0.568, 6.416e-6
0.572, 7.098e-6
0.576, 7.828e-6
0.580, 8.582e-6
0.584, 9.724e-6
0.588, 1.108e-5
0.592, 1.296e-5
0.596, 1.490e-5
0.600, 1.752e-5
0.604, 2.082e-5
0.608, 2.485e-5
0.612, 2.950e-5
0.616, 3.534e-5
0.620, 4.228e-5
0.624, 4.985e-5
0.628, 5.805e-5
0.632, 6.675e-5
0.636, 7.498e-5
0.640, 8.298e-5
0.644, 8.978e-5
0.648, 9.526e-5
0.652, 9.928e-5
0.656, 1.016e-4
0.660, 1.022e-4
0.664, 1.010e-4
0.668, 9.886e-5
0.672, 9.568e-5
0.676, 9.236e-5
0.680, 8.929e-5
0.684, 8.626e-5
0.688, 8.373e-5
0.692, 8.151e-5
0.696, 7.959e-5
0.700, 7.845e-5
0.704, 7.754e-5
0.708, 7.711e-5
0.712, 7.720e-5
0.716, 7.795e-5
0.720, 7.890e-5
0.724, 8.008e-5
0.728, 8.186e-5
0.732, 8.396e-5
0.736, 8.658e-5
0.740, 8.921e-5
0.744, 9.237e-5
0.748, 9.551e-5
0.752, 9.885e-5
0.756, 1.025e-4
0.760, 1.059e-4
0.764, 1.097e-4
0.768, 1.135e-4
0.772, 1.171e-4
0.776, 1.209e-4
0.780, 1.245e-4
0.784, 1.280e-4
0.788, 1.314e-4
0.792, 1.345e-4
0.796, 1.374e-4
0.800, 1.401e-4
0.804, 1.419e-4
0.808, 1.437e-4
0.812, 1.443e-4
0.816, 1.441e-4
0.820, 1.431e-4
0.824, 1.406e-4
0.828, 1.373e-4
0.832, 1.333e-4
0.836, 1.284e-4
0.840, 1.230e-4
0.844, 1.174e-4
0.848, 1.119e-4
0.852, 1.062e-4
0.856, 1.008e-4
0.860, 9.548e-5
0.864, 9.056e-5
0.868, 8.581e-5
0.872, 8.100e-5
0.876, 7.654e-5
0.880, 7.227e-5
0.884, 6.843e-5
0.888, 6.435e-5
0.892, 6.079e-5
0.896, 5.719e-5
0.900, 5.395e-5
0.904, 5.089e-5
0.908, 4.799e-5
0.912, 4.519e-5
0.916, 4.260e-5
0.920, 4.012e-5
0.924, 3.793e-5
0.928, 3.585e-5
0.932, 3.381e-5
0.936, 3.229e-5
0.940, 3.055e-5
0.944, 2.912e-5
0.948, 2.778e-5
0.952, 2.655e-5
0.956, 2.539e-5
0.960, 2.427e-5
0.964, 2.318e-5
0.968, 2.235e-5
0.972, 2.147e-5
0.976, 2.068e-5
0.980, 1.994e-5
0.984, 1.938e-5
0.988, 1.889e-5
0.992, 1.826e-5
0.996, 1.768e-5
1.000, 1.729e-5
