July 22, 2025   10:49:37
Differential Pulse Voltammetry
File: e:\Data Source:  Experiment
Instrument Model:  CHI620E
Header: 
Note: 

Init E (V) = 0
Final E (V) = 1
Incr E (V) = 0.004
Amplitude (V) = 0.05
Pulse Width (sec) = 0.05
Sample Width (sec) = 0.0167
Pulse Period (sec) = 0.5
Quiet Time (sec) = 2
Sensitivity (A/V) = 0.01

Results:

Channel 1:
Ep = 0.732V
ip = 7.608e-5A
Ap = 6.551e-6VA

Potential/V, Current/A

0.004, 2.031e-5
0.008, 1.774e-5
0.012, 1.592e-5
0.016, 1.464e-5
0.020, 1.382e-5
0.024, 1.315e-5
0.028, 1.278e-5
0.032, 1.224e-5
0.036, 1.180e-5
0.040, 1.141e-5
0.044, 1.117e-5
0.048, 1.108e-5
0.052, 1.089e-5
0.056, 1.068e-5
0.060, 1.069e-5
0.064, 1.069e-5
0.068, 1.074e-5
0.072, 1.070e-5
0.076, 1.085e-5
0.080, 1.098e-5
0.084, 1.103e-5
0.088, 1.108e-5
0.092, 1.120e-5
0.096, 1.128e-5
0.100, 1.135e-5
0.104, 1.136e-5
0.108, 1.138e-5
0.112, 1.144e-5
0.116, 1.145e-5
0.120, 1.145e-5
0.124, 1.164e-5
0.128, 1.158e-5
0.132, 1.145e-5
0.136, 1.164e-5
0.140, 1.160e-5
0.144, 1.163e-5
0.148, 1.185e-5
0.152, 1.171e-5
0.156, 1.180e-5
0.160, 1.180e-5
0.164, 1.187e-5
0.168, 1.181e-5
0.172, 1.190e-5
0.176, 1.180e-5
0.180, 1.193e-5
0.184, 1.172e-5
0.188, 1.189e-5
0.192, 1.175e-5
0.196, 1.168e-5
0.200, 1.174e-5
0.204, 1.180e-5
0.208, 1.191e-5
0.212, 1.180e-5
0.216, 1.171e-5
0.220, 1.162e-5
0.224, 1.148e-5
0.228, 1.142e-5
0.232, 1.145e-5
0.236, 1.134e-5
0.240, 1.111e-5
0.244, 1.114e-5
0.248, 1.076e-5
0.252, 1.083e-5
0.256, 1.067e-5
0.260, 1.042e-5
0.264, 1.024e-5
0.268, 1.011e-5
0.272, 9.959e-6
0.276, 9.794e-6
0.280, 9.512e-6
0.284, 9.453e-6
0.288, 9.100e-6
0.292, 9.170e-6
0.296, 8.747e-6
0.300, 8.605e-6
0.304, 8.499e-6
0.308, 8.335e-6
0.312, 8.005e-6
0.316, 7.887e-6
0.320, 7.711e-6
0.324, 7.534e-6
0.328, 7.463e-6
0.332, 7.299e-6
0.336, 7.087e-6
0.340, 7.098e-6
0.344, 6.863e-6
0.348, 6.828e-6
0.352, 6.533e-6
0.356, 6.404e-6
0.360, 6.333e-6
0.364, 6.310e-6
0.368, 6.098e-6
0.372, 5.862e-6
0.376, 5.792e-6
0.380, 5.721e-6
0.384, 5.721e-6
0.388, 5.392e-6
0.392, 5.498e-6
0.396, 5.286e-6
0.400, 5.191e-6
0.404, 4.956e-6
0.408, 4.956e-6
0.412, 4.885e-6
0.416, 4.603e-6
0.420, 4.568e-6
0.424, 4.367e-6
0.428, 4.403e-6
0.432, 4.403e-6
0.436, 4.179e-6
0.440, 3.944e-6
0.444, 4.132e-6
0.448, 3.955e-6
0.452, 3.897e-6
0.456, 3.826e-6
0.460, 3.944e-6
0.464, 3.779e-6
0.468, 3.708e-6
0.472, 3.532e-6
0.476, 3.602e-6
0.480, 3.508e-6
0.484, 3.473e-6
0.488, 3.390e-6
0.492, 3.390e-6
0.496, 3.284e-6
0.500, 3.402e-6
0.504, 3.379e-6
0.508, 3.331e-6
0.512, 3.320e-6
0.516, 3.143e-6
0.520, 3.284e-6
0.524, 3.178e-6
0.528, 3.237e-6
0.532, 3.202e-6
0.536, 3.084e-6
0.540, 3.120e-6
0.544, 3.273e-6
0.548, 3.037e-6
0.552, 3.178e-6
0.556, 3.296e-6
0.560, 3.226e-6
0.564, 3.296e-6
0.568, 3.261e-6
0.572, 3.473e-6
0.576, 3.567e-6
0.580, 3.520e-6
0.584, 3.743e-6
0.588, 4.038e-6
0.592, 4.203e-6
0.596, 4.438e-6
0.600, 4.874e-6
0.604, 5.203e-6
0.608, 5.921e-6
0.612, 6.734e-6
0.616, 7.899e-6
0.620, 9.418e-6
0.624, 1.165e-5
0.628, 1.448e-5
0.632, 1.827e-5
0.636, 2.260e-5
0.640, 2.763e-5
0.644, 3.311e-5
0.648, 3.885e-5
0.652, 4.457e-5
0.656, 5.004e-5
0.660, 5.580e-5
0.664, 6.156e-5
0.668, 6.857e-5
0.672, 7.541e-5
0.676, 8.267e-5
0.680, 9.030e-5
0.684, 9.831e-5
0.688, 1.070e-4
0.692, 1.153e-4
0.696, 1.239e-4
0.700, 1.331e-4
0.704, 1.424e-4
0.708, 1.508e-4
0.712, 1.587e-4
0.716, 1.654e-4
0.720, 1.705e-4
0.724, 1.741e-4
0.728, 1.757e-4
0.732, 1.761e-4
0.736, 1.749e-4
0.740, 1.735e-4
0.744, 1.718e-4
0.748, 1.704e-4
0.752, 1.692e-4
0.756, 1.683e-4
0.760, 1.669e-4
0.764, 1.661e-4
0.768, 1.650e-4
0.772, 1.641e-4
0.776, 1.632e-4
0.780, 1.621e-4
0.784, 1.611e-4
0.788, 1.597e-4
0.792, 1.584e-4
0.796, 1.570e-4
0.800, 1.555e-4
0.804, 1.542e-4
0.808, 1.528e-4
0.812, 1.517e-4
0.816, 1.505e-4
0.820, 1.496e-4
0.824, 1.487e-4
0.828, 1.485e-4
0.832, 1.486e-4
0.836, 1.490e-4
0.840, 1.498e-4
0.844, 1.510e-4
0.848, 1.523e-4
0.852, 1.539e-4
0.856, 1.559e-4
0.860, 1.580e-4
0.864, 1.604e-4
0.868, 1.629e-4
0.872, 1.657e-4
0.876, 1.687e-4
0.880, 1.720e-4
0.884, 1.752e-4
0.888, 1.782e-4
0.892, 1.813e-4
0.896, 1.841e-4
0.900, 1.869e-4
0.904, 1.898e-4
0.908, 1.920e-4
0.912, 1.940e-4
0.916, 1.957e-4
0.920, 1.972e-4
0.924, 1.983e-4
0.928, 1.988e-4
0.932, 1.992e-4
0.936, 1.990e-4
0.940, 1.987e-4
0.944, 1.981e-4
0.948, 1.973e-4
0.952, 1.964e-4
0.956, 1.955e-4
0.960, 1.940e-4
0.964, 1.921e-4
0.968, 1.898e-4
0.972, 1.863e-4
0.976, 1.818e-4
0.980, 1.760e-4
0.984, 1.691e-4
0.988, 1.612e-4
0.992, 1.526e-4
0.996, 1.441e-4
1.000, 1.363e-4
