July 22, 2025   11:05:44
Differential Pulse Voltammetry
File: e:\Data Source:  Experiment
Instrument Model:  CHI620E
Header: 
Note: 

Init E (V) = 0
Final E (V) = 1
Incr E (V) = 0.004
Amplitude (V) = 0.05
Pulse Width (sec) = 0.05
Sample Width (sec) = 0.0167
Pulse Period (sec) = 0.5
Quiet Time (sec) = 2
Sensitivity (A/V) = 0.01

Results:

Channel 1:
Ep = 0.708V
ip = 9.132e-5A
Ap = 8.074e-6VA

Potential/V, Current/A

0.004, 2.234e-5
0.008, 1.934e-5
0.012, 1.734e-5
0.016, 1.574e-5
0.020, 1.497e-5
0.024, 1.417e-5
0.028, 1.363e-5
0.032, 1.316e-5
0.036, 1.277e-5
0.040, 1.231e-5
0.044, 1.223e-5
0.048, 1.191e-5
0.052, 1.177e-5
0.056, 1.138e-5
0.060, 1.157e-5
0.064, 1.157e-5
0.068, 1.137e-5
0.072, 1.170e-5
0.076, 1.188e-5
0.080, 1.198e-5
0.084, 1.191e-5
0.088, 1.236e-5
0.092, 1.229e-5
0.096, 1.247e-5
0.100, 1.253e-5
0.104, 1.284e-5
0.108, 1.293e-5
0.112, 1.307e-5
0.116, 1.317e-5
0.120, 1.329e-5
0.124, 1.338e-5
0.128, 1.346e-5
0.132, 1.358e-5
0.136, 1.369e-5
0.140, 1.382e-5
0.144, 1.387e-5
0.148, 1.399e-5
0.152, 1.410e-5
0.156, 1.414e-5
0.160, 1.409e-5
0.164, 1.422e-5
0.168, 1.422e-5
0.172, 1.427e-5
0.176, 1.437e-5
0.180, 1.435e-5
0.184, 1.434e-5
0.188, 1.443e-5
0.192, 1.448e-5
0.196, 1.455e-5
0.200, 1.444e-5
0.204, 1.451e-5
0.208, 1.461e-5
0.212, 1.460e-5
0.216, 1.454e-5
0.220, 1.433e-5
0.224, 1.457e-5
0.228, 1.439e-5
0.232, 1.443e-5
0.236, 1.429e-5
0.240, 1.408e-5
0.244, 1.403e-5
0.248, 1.384e-5
0.252, 1.394e-5
0.256, 1.375e-5
0.260, 1.344e-5
0.264, 1.362e-5
0.268, 1.346e-5
0.272, 1.315e-5
0.276, 1.294e-5
0.280, 1.284e-5
0.284, 1.274e-5
0.288, 1.243e-5
0.292, 1.222e-5
0.296, 1.215e-5
0.300, 1.201e-5
0.304, 1.178e-5
0.308, 1.157e-5
0.312, 1.117e-5
0.316, 1.124e-5
0.320, 1.088e-5
0.324, 1.064e-5
0.328, 1.045e-5
0.332, 1.038e-5
0.336, 1.019e-5
0.340, 9.912e-6
0.344, 9.724e-6
0.348, 9.712e-6
0.352, 9.512e-6
0.356, 9.276e-6
0.360, 9.123e-6
0.364, 9.029e-6
0.368, 8.876e-6
0.372, 8.747e-6
0.376, 8.464e-6
0.380, 8.393e-6
0.384, 8.276e-6
0.388, 8.028e-6
0.392, 7.981e-6
0.396, 7.781e-6
0.400, 7.593e-6
0.404, 7.463e-6
0.408, 7.452e-6
0.412, 7.216e-6
0.416, 6.910e-6
0.420, 6.792e-6
0.424, 6.686e-6
0.428, 6.604e-6
0.432, 6.475e-6
0.436, 6.404e-6
0.440, 6.145e-6
0.444, 6.133e-6
0.448, 6.027e-6
0.452, 5.686e-6
0.456, 5.745e-6
0.460, 5.674e-6
0.464, 5.439e-6
0.468, 5.450e-6
0.472, 5.262e-6
0.476, 5.297e-6
0.480, 5.180e-6
0.484, 5.133e-6
0.488, 5.050e-6
0.492, 5.168e-6
0.496, 4.862e-6
0.500, 4.827e-6
0.504, 4.815e-6
0.508, 4.685e-6
0.512, 4.626e-6
0.516, 4.568e-6
0.520, 4.591e-6
0.524, 4.756e-6
0.528, 4.615e-6
0.532, 4.579e-6
0.536, 4.403e-6
0.540, 4.579e-6
0.544, 4.838e-6
0.548, 4.603e-6
0.552, 4.756e-6
0.556, 4.662e-6
0.560, 4.838e-6
0.564, 4.850e-6
0.568, 4.909e-6
0.572, 5.109e-6
0.576, 5.368e-6
0.580, 5.439e-6
0.584, 5.804e-6
0.588, 6.322e-6
0.592, 6.592e-6
0.596, 7.299e-6
0.600, 7.958e-6
0.604, 9.217e-6
0.608, 1.052e-5
0.612, 1.221e-5
0.616, 1.449e-5
0.620, 1.769e-5
0.624, 2.142e-5
0.628, 2.611e-5
0.632, 3.183e-5
0.636, 3.880e-5
0.640, 4.653e-5
0.644, 5.446e-5
0.648, 6.313e-5
0.652, 7.259e-5
0.656, 8.232e-5
0.660, 9.189e-5
0.664, 1.018e-4
0.668, 1.124e-4
0.672, 1.235e-4
0.676, 1.340e-4
0.680, 1.444e-4
0.684, 1.536e-4
0.688, 1.615e-4
0.692, 1.684e-4
0.696, 1.734e-4
0.700, 1.772e-4
0.704, 1.794e-4
0.708, 1.801e-4
0.712, 1.799e-4
0.716, 1.794e-4
0.720, 1.779e-4
0.724, 1.758e-4
0.728, 1.733e-4
0.732, 1.706e-4
0.736, 1.676e-4
0.740, 1.648e-4
0.744, 1.621e-4
0.748, 1.597e-4
0.752, 1.576e-4
0.756, 1.554e-4
0.760, 1.536e-4
0.764, 1.521e-4
0.768, 1.504e-4
0.772, 1.487e-4
0.776, 1.476e-4
0.780, 1.466e-4
0.784, 1.453e-4
0.788, 1.443e-4
0.792, 1.432e-4
0.796, 1.423e-4
0.800, 1.414e-4
0.804, 1.406e-4
0.808, 1.399e-4
0.812, 1.395e-4
0.816, 1.393e-4
0.820, 1.393e-4
0.824, 1.395e-4
0.828, 1.404e-4
0.832, 1.414e-4
0.836, 1.429e-4
0.840, 1.446e-4
0.844, 1.467e-4
0.848, 1.488e-4
0.852, 1.513e-4
0.856, 1.538e-4
0.860, 1.566e-4
0.864, 1.593e-4
0.868, 1.622e-4
0.872, 1.653e-4
0.876, 1.687e-4
0.880, 1.720e-4
0.884, 1.754e-4
0.888, 1.785e-4
0.892, 1.818e-4
0.896, 1.850e-4
0.900, 1.878e-4
0.904, 1.906e-4
0.908, 1.930e-4
0.912, 1.950e-4
0.916, 1.966e-4
0.920, 1.978e-4
0.924, 1.985e-4
0.928, 1.986e-4
0.932, 1.985e-4
0.936, 1.982e-4
0.940, 1.976e-4
0.944, 1.967e-4
0.948, 1.957e-4
0.952, 1.944e-4
0.956, 1.932e-4
0.960, 1.917e-4
0.964, 1.893e-4
0.968, 1.864e-4
0.972, 1.825e-4
0.976, 1.772e-4
0.980, 1.707e-4
0.984, 1.631e-4
0.988, 1.549e-4
0.992, 1.463e-4
0.996, 1.382e-4
1.000, 1.305e-4
