July 22, 2025   09:53:35
Differential Pulse Voltammetry
File: e:\Data Source:  Experiment
Instrument Model:  CHI620E
Header: 
Note: 

Init E (V) = 0
Final E (V) = 1
Incr E (V) = 0.004
Amplitude (V) = 0.05
Pulse Width (sec) = 0.05
Sample Width (sec) = 0.0167
Pulse Period (sec) = 0.5
Quiet Time (sec) = 2
Sensitivity (A/V) = 0.01

Results:

Channel 1:
Ep = 0.780V
ip = 8.503e-5A
Ap = 1.008e-5VA

Potential/V, Current/A

0.004, 1.434e-5
0.008, 1.302e-5
0.012, 1.221e-5
0.016, 1.156e-5
0.020, 1.094e-5
0.024, 1.065e-5
0.028, 1.011e-5
0.032, 9.900e-6
0.036, 9.877e-6
0.040, 9.794e-6
0.044, 9.653e-6
0.048, 9.653e-6
0.052, 9.618e-6
0.056, 9.594e-6
0.060, 9.418e-6
0.064, 9.547e-6
0.068, 9.594e-6
0.072, 9.476e-6
0.076, 9.629e-6
0.080, 9.571e-6
0.084, 9.841e-6
0.088, 9.806e-6
0.092, 1.011e-5
0.096, 1.037e-5
0.100, 1.044e-5
0.104, 1.064e-5
0.108, 1.077e-5
0.112, 1.087e-5
0.116, 1.087e-5
0.120, 1.064e-5
0.124, 1.062e-5
0.128, 1.076e-5
0.132, 1.059e-5
0.136, 1.054e-5
0.140, 1.054e-5
0.144, 1.038e-5
0.148, 1.024e-5
0.152, 1.024e-5
0.156, 1.032e-5
0.160, 1.018e-5
0.164, 1.003e-5
0.168, 9.947e-6
0.172, 9.924e-6
0.176, 1.001e-5
0.180, 9.794e-6
0.184, 9.771e-6
0.188, 9.806e-6
0.192, 9.582e-6
0.196, 9.571e-6
0.200, 9.418e-6
0.204, 9.429e-6
0.208, 9.359e-6
0.212, 9.100e-6
0.216, 9.053e-6
0.220, 9.100e-6
0.224, 8.829e-6
0.228, 8.582e-6
0.232, 8.358e-6
0.236, 8.299e-6
0.240, 8.217e-6
0.244, 7.805e-6
0.248, 7.781e-6
0.252, 7.581e-6
0.256, 7.416e-6
0.260, 7.134e-6
0.264, 7.028e-6
0.268, 6.981e-6
0.272, 6.663e-6
0.276, 6.416e-6
0.280, 6.380e-6
0.284, 6.263e-6
0.288, 6.086e-6
0.292, 5.898e-6
0.296, 5.709e-6
0.300, 5.627e-6
0.304, 5.498e-6
0.308, 5.215e-6
0.312, 5.074e-6
0.316, 5.027e-6
0.320, 4.980e-6
0.324, 4.685e-6
0.328, 4.650e-6
0.332, 4.497e-6
0.336, 4.367e-6
0.340, 4.238e-6
0.344, 4.085e-6
0.348, 4.108e-6
0.352, 3.979e-6
0.356, 3.826e-6
0.360, 3.661e-6
0.364, 3.826e-6
0.368, 3.708e-6
0.372, 3.520e-6
0.376, 3.508e-6
0.380, 3.473e-6
0.384, 3.367e-6
0.388, 3.155e-6
0.392, 3.414e-6
0.396, 3.014e-6
0.400, 3.025e-6
0.404, 3.178e-6
0.408, 2.990e-6
0.412, 2.861e-6
0.416, 2.884e-6
0.420, 2.861e-6
0.424, 2.755e-6
0.428, 2.719e-6
0.432, 2.719e-6
0.436, 2.731e-6
0.440, 2.555e-6
0.444, 2.613e-6
0.448, 2.637e-6
0.452, 2.531e-6
0.456, 2.531e-6
0.460, 2.543e-6
0.464, 2.625e-6
0.468, 2.555e-6
0.472, 2.543e-6
0.476, 2.449e-6
0.480, 2.425e-6
0.484, 2.307e-6
0.488, 2.354e-6
0.492, 2.437e-6
0.496, 2.390e-6
0.500, 2.507e-6
0.504, 2.378e-6
0.508, 2.413e-6
0.512, 2.378e-6
0.516, 2.272e-6
0.520, 2.343e-6
0.524, 2.401e-6
0.528, 2.213e-6
0.532, 2.284e-6
0.536, 2.296e-6
0.540, 2.296e-6
0.544, 2.307e-6
0.548, 2.284e-6
0.552, 2.296e-6
0.556, 2.307e-6
0.560, 2.284e-6
0.564, 2.331e-6
0.568, 2.390e-6
0.572, 2.507e-6
0.576, 2.543e-6
0.580, 2.519e-6
0.584, 2.613e-6
0.588, 2.602e-6
0.592, 2.778e-6
0.596, 2.861e-6
0.600, 3.037e-6
0.604, 3.237e-6
0.608, 3.461e-6
0.612, 3.720e-6
0.616, 3.885e-6
0.620, 4.344e-6
0.624, 4.980e-6
0.628, 5.580e-6
0.632, 6.581e-6
0.636, 7.887e-6
0.640, 9.947e-6
0.644, 1.280e-5
0.648, 1.738e-5
0.652, 2.293e-5
0.656, 2.928e-5
0.660, 3.572e-5
0.664, 4.247e-5
0.668, 4.916e-5
0.672, 5.601e-5
0.676, 6.318e-5
0.680, 7.109e-5
0.684, 7.898e-5
0.688, 8.615e-5
0.692, 9.308e-5
0.696, 9.998e-5
0.700, 1.071e-4
0.704, 1.149e-4
0.708, 1.231e-4
0.712, 1.317e-4
0.716, 1.410e-4
0.720, 1.509e-4
0.724, 1.613e-4
0.728, 1.722e-4
0.732, 1.830e-4
0.736, 1.922e-4
0.740, 1.981e-4
0.744, 2.013e-4
0.748, 2.023e-4
0.752, 2.022e-4
0.756, 2.026e-4
0.760, 2.030e-4
0.764, 2.037e-4
0.768, 2.040e-4
0.772, 2.052e-4
0.776, 2.059e-4
0.780, 2.061e-4
0.784, 2.058e-4
0.788, 2.055e-4
0.792, 2.044e-4
0.796, 2.033e-4
0.800, 2.020e-4
0.804, 2.001e-4
0.808, 1.977e-4
0.812, 1.949e-4
0.816, 1.919e-4
0.820, 1.885e-4
0.824, 1.848e-4
0.828, 1.814e-4
0.832, 1.783e-4
0.836, 1.753e-4
0.840, 1.725e-4
0.844, 1.698e-4
0.848, 1.674e-4
0.852, 1.657e-4
0.856, 1.644e-4
0.860, 1.638e-4
0.864, 1.634e-4
0.868, 1.633e-4
0.872, 1.638e-4
0.876, 1.647e-4
0.880, 1.657e-4
0.884, 1.671e-4
0.888, 1.687e-4
0.892, 1.706e-4
0.896, 1.726e-4
0.900, 1.750e-4
0.904, 1.773e-4
0.908, 1.796e-4
0.912, 1.816e-4
0.916, 1.836e-4
0.920, 1.853e-4
0.924, 1.869e-4
0.928, 1.879e-4
0.932, 1.885e-4
0.936, 1.885e-4
0.940, 1.880e-4
0.944, 1.867e-4
0.948, 1.852e-4
0.952, 1.829e-4
0.956, 1.803e-4
0.960, 1.774e-4
0.964, 1.740e-4
0.968, 1.705e-4
0.972, 1.666e-4
0.976, 1.626e-4
0.980, 1.579e-4
0.984, 1.528e-4
0.988, 1.474e-4
0.992, 1.416e-4
0.996, 1.357e-4
1.000, 1.301e-4
