July 22, 2025   09:57:56
Differential Pulse Voltammetry
File: e:\Data Source:  Experiment
Instrument Model:  CHI620E
Header: 
Note: 

Init E (V) = 0
Final E (V) = 1
Incr E (V) = 0.004
Amplitude (V) = 0.05
Pulse Width (sec) = 0.05
Sample Width (sec) = 0.0167
Pulse Period (sec) = 0.5
Quiet Time (sec) = 2
Sensitivity (A/V) = 0.01

Results:

Channel 1:
Ep = 0.108V
ip = 1.566e-6A
Ap = 2.343e-7VA

Ep = 0.784V
ip = 8.600e-5A
Ap = 1.123e-5VA

Potential/V, Current/A

0.004, 1.740e-5
0.008, 1.579e-5
0.012, 1.466e-5
0.016, 1.376e-5
0.020, 1.307e-5
0.024, 1.250e-5
0.028, 1.207e-5
0.032, 1.169e-5
0.036, 1.156e-5
0.040, 1.134e-5
0.044, 1.129e-5
0.048, 1.117e-5
0.052, 1.088e-5
0.056, 1.076e-5
0.060, 1.071e-5
0.064, 1.064e-5
0.068, 1.052e-5
0.072, 1.050e-5
0.076, 1.048e-5
0.080, 1.055e-5
0.084, 1.064e-5
0.088, 1.082e-5
0.092, 1.089e-5
0.096, 1.103e-5
0.100, 1.114e-5
0.104, 1.115e-5
0.108, 1.120e-5
0.112, 1.118e-5
0.116, 1.090e-5
0.120, 1.074e-5
0.124, 1.079e-5
0.128, 1.071e-5
0.132, 1.037e-5
0.136, 1.039e-5
0.140, 1.034e-5
0.144, 1.022e-5
0.148, 1.016e-5
0.152, 1.005e-5
0.156, 9.971e-6
0.160, 9.888e-6
0.164, 9.747e-6
0.168, 9.688e-6
0.172, 9.818e-6
0.176, 9.665e-6
0.180, 9.559e-6
0.184, 9.347e-6
0.188, 9.312e-6
0.192, 9.265e-6
0.196, 9.088e-6
0.200, 9.064e-6
0.204, 8.853e-6
0.208, 8.688e-6
0.212, 8.417e-6
0.216, 8.182e-6
0.220, 8.028e-6
0.224, 7.817e-6
0.228, 7.346e-6
0.232, 7.440e-6
0.236, 7.146e-6
0.240, 6.957e-6
0.244, 6.522e-6
0.248, 6.416e-6
0.252, 6.180e-6
0.256, 5.945e-6
0.260, 5.780e-6
0.264, 5.686e-6
0.268, 5.297e-6
0.272, 5.085e-6
0.276, 4.897e-6
0.280, 4.968e-6
0.284, 4.697e-6
0.288, 4.544e-6
0.292, 4.414e-6
0.296, 4.320e-6
0.300, 4.203e-6
0.304, 4.061e-6
0.308, 3.991e-6
0.312, 3.897e-6
0.316, 3.861e-6
0.320, 3.661e-6
0.324, 3.743e-6
0.328, 3.626e-6
0.332, 3.661e-6
0.336, 3.590e-6
0.340, 3.520e-6
0.344, 3.508e-6
0.348, 3.402e-6
0.352, 3.390e-6
0.356, 3.320e-6
0.360, 3.331e-6
0.364, 3.379e-6
0.368, 3.379e-6
0.372, 3.296e-6
0.376, 3.390e-6
0.380, 3.202e-6
0.384, 3.320e-6
0.388, 3.084e-6
0.392, 3.037e-6
0.396, 3.226e-6
0.400, 3.096e-6
0.404, 3.178e-6
0.408, 3.096e-6
0.412, 3.072e-6
0.416, 2.990e-6
0.420, 2.978e-6
0.424, 2.931e-6
0.428, 3.025e-6
0.432, 2.884e-6
0.436, 2.884e-6
0.440, 2.802e-6
0.444, 2.896e-6
0.448, 3.061e-6
0.452, 2.896e-6
0.456, 2.825e-6
0.460, 2.943e-6
0.464, 2.766e-6
0.468, 2.778e-6
0.472, 2.743e-6
0.476, 2.861e-6
0.480, 2.849e-6
0.484, 2.731e-6
0.488, 2.766e-6
0.492, 2.790e-6
0.496, 2.790e-6
0.500, 2.590e-6
0.504, 2.731e-6
0.508, 2.766e-6
0.512, 2.578e-6
0.516, 2.578e-6
0.520, 2.590e-6
0.524, 2.625e-6
0.528, 2.872e-6
0.532, 2.602e-6
0.536, 2.625e-6
0.540, 2.578e-6
0.544, 2.743e-6
0.548, 2.472e-6
0.552, 2.613e-6
0.556, 2.696e-6
0.560, 2.649e-6
0.564, 2.613e-6
0.568, 2.519e-6
0.572, 2.672e-6
0.576, 2.731e-6
0.580, 2.743e-6
0.584, 2.802e-6
0.588, 2.943e-6
0.592, 2.896e-6
0.596, 3.131e-6
0.600, 3.202e-6
0.604, 3.367e-6
0.608, 3.543e-6
0.612, 3.861e-6
0.616, 4.026e-6
0.620, 4.462e-6
0.624, 4.862e-6
0.628, 5.533e-6
0.632, 6.345e-6
0.636, 7.334e-6
0.640, 9.029e-6
0.644, 1.143e-5
0.648, 1.506e-5
0.652, 1.994e-5
0.656, 2.538e-5
0.660, 3.133e-5
0.664, 3.778e-5
0.668, 4.423e-5
0.672, 5.114e-5
0.676, 5.778e-5
0.680, 6.522e-5
0.684, 7.386e-5
0.688, 8.282e-5
0.692, 9.232e-5
0.696, 1.023e-4
0.700, 1.121e-4
0.704, 1.227e-4
0.708, 1.340e-4
0.712, 1.444e-4
0.716, 1.544e-4
0.720, 1.640e-4
0.724, 1.732e-4
0.728, 1.820e-4
0.732, 1.898e-4
0.736, 1.962e-4
0.740, 1.998e-4
0.744, 2.015e-4
0.748, 2.014e-4
0.752, 2.015e-4
0.756, 2.013e-4
0.760, 2.017e-4
0.764, 2.015e-4
0.768, 2.020e-4
0.772, 2.030e-4
0.776, 2.038e-4
0.780, 2.042e-4
0.784, 2.042e-4
0.788, 2.040e-4
0.792, 2.034e-4
0.796, 2.026e-4
0.800, 2.016e-4
0.804, 1.999e-4
0.808, 1.978e-4
0.812, 1.953e-4
0.816, 1.924e-4
0.820, 1.891e-4
0.824, 1.854e-4
0.828, 1.817e-4
0.832, 1.781e-4
0.836, 1.745e-4
0.840, 1.716e-4
0.844, 1.690e-4
0.848, 1.666e-4
0.852, 1.646e-4
0.856, 1.626e-4
0.860, 1.615e-4
0.864, 1.610e-4
0.868, 1.608e-4
0.872, 1.612e-4
0.876, 1.619e-4
0.880, 1.627e-4
0.884, 1.640e-4
0.888, 1.651e-4
0.892, 1.670e-4
0.896, 1.689e-4
0.900, 1.709e-4
0.904, 1.732e-4
0.908, 1.754e-4
0.912, 1.775e-4
0.916, 1.795e-4
0.920, 1.811e-4
0.924, 1.826e-4
0.928, 1.837e-4
0.932, 1.842e-4
0.936, 1.845e-4
0.940, 1.841e-4
0.944, 1.832e-4
0.948, 1.819e-4
0.952, 1.801e-4
0.956, 1.779e-4
0.960, 1.753e-4
0.964, 1.723e-4
0.968, 1.690e-4
0.972, 1.655e-4
0.976, 1.617e-4
0.980, 1.575e-4
0.984, 1.529e-4
0.988, 1.475e-4
0.992, 1.419e-4
0.996, 1.360e-4
1.000, 1.300e-4
