July 21, 2025   20:17:04
Differential Pulse Voltammetry
File: e:\Data Source:  Experiment
Instrument Model:  CHI620E
Header: 
Note: 

Init E (V) = 0
Final E (V) = 1
Incr E (V) = 0.004
Amplitude (V) = 0.05
Pulse Width (sec) = 0.05
Sample Width (sec) = 0.0167
Pulse Period (sec) = 0.5
Quiet Time (sec) = 2
Sensitivity (A/V) = 0.01

Results:

Channel 1:
Ep = 0.776V
ip = 3.785e-5A
Ap = 4.532e-6VA

Potential/V, Current/A

0.004, 6.663e-6
0.008, 5.933e-6
0.012, 5.627e-6
0.016, 5.380e-6
0.020, 5.333e-6
0.024, 5.050e-6
0.028, 5.085e-6
0.032, 4.932e-6
0.036, 4.650e-6
0.040, 4.638e-6
0.044, 4.638e-6
0.048, 4.462e-6
0.052, 4.426e-6
0.056, 4.379e-6
0.060, 4.332e-6
0.064, 4.332e-6
0.068, 4.297e-6
0.072, 4.214e-6
0.076, 4.250e-6
0.080, 4.191e-6
0.084, 4.167e-6
0.088, 4.085e-6
0.092, 4.132e-6
0.096, 4.073e-6
0.100, 4.226e-6
0.104, 4.108e-6
0.108, 4.050e-6
0.112, 4.085e-6
0.116, 4.108e-6
0.120, 4.238e-6
0.124, 4.356e-6
0.128, 4.320e-6
0.132, 4.238e-6
0.136, 4.344e-6
0.140, 4.403e-6
0.144, 4.450e-6
0.148, 4.367e-6
0.152, 4.520e-6
0.156, 4.603e-6
0.160, 4.615e-6
0.164, 4.650e-6
0.168, 4.673e-6
0.172, 4.768e-6
0.176, 4.673e-6
0.180, 4.850e-6
0.184, 4.944e-6
0.188, 4.779e-6
0.192, 4.874e-6
0.196, 4.980e-6
0.200, 4.768e-6
0.204, 4.909e-6
0.208, 4.921e-6
0.212, 4.921e-6
0.216, 4.991e-6
0.220, 4.944e-6
0.224, 4.862e-6
0.228, 4.897e-6
0.232, 4.980e-6
0.236, 4.827e-6
0.240, 4.791e-6
0.244, 4.850e-6
0.248, 4.838e-6
0.252, 4.827e-6
0.256, 4.673e-6
0.260, 4.650e-6
0.264, 4.603e-6
0.268, 4.685e-6
0.272, 4.626e-6
0.276, 4.450e-6
0.280, 4.403e-6
0.284, 4.332e-6
0.288, 4.391e-6
0.292, 4.426e-6
0.296, 4.297e-6
0.300, 4.250e-6
0.304, 4.261e-6
0.308, 4.108e-6
0.312, 4.097e-6
0.316, 4.014e-6
0.320, 4.097e-6
0.324, 3.932e-6
0.328, 3.908e-6
0.332, 3.967e-6
0.336, 3.802e-6
0.340, 3.791e-6
0.344, 3.649e-6
0.348, 3.732e-6
0.352, 3.743e-6
0.356, 3.626e-6
0.360, 3.543e-6
0.364, 3.696e-6
0.368, 3.720e-6
0.372, 3.614e-6
0.376, 3.449e-6
0.380, 3.532e-6
0.384, 3.543e-6
0.388, 3.532e-6
0.392, 3.437e-6
0.396, 3.543e-6
0.400, 3.543e-6
0.404, 3.485e-6
0.408, 3.261e-6
0.412, 3.261e-6
0.416, 3.367e-6
0.420, 3.155e-6
0.424, 3.379e-6
0.428, 3.226e-6
0.432, 3.308e-6
0.436, 3.296e-6
0.440, 3.084e-6
0.444, 3.190e-6
0.448, 3.202e-6
0.452, 3.167e-6
0.456, 3.143e-6
0.460, 3.002e-6
0.464, 3.178e-6
0.468, 3.061e-6
0.472, 3.037e-6
0.476, 2.884e-6
0.480, 2.955e-6
0.484, 2.943e-6
0.488, 2.978e-6
0.492, 2.861e-6
0.496, 2.955e-6
0.500, 2.943e-6
0.504, 2.778e-6
0.508, 2.849e-6
0.512, 2.778e-6
0.516, 2.908e-6
0.520, 2.755e-6
0.524, 2.884e-6
0.528, 2.849e-6
0.532, 2.849e-6
0.536, 2.849e-6
0.540, 2.778e-6
0.544, 2.884e-6
0.548, 2.825e-6
0.552, 2.943e-6
0.556, 3.014e-6
0.560, 2.896e-6
0.564, 3.025e-6
0.568, 3.002e-6
0.572, 3.296e-6
0.576, 3.449e-6
0.580, 3.520e-6
0.584, 3.991e-6
0.588, 4.073e-6
0.592, 4.462e-6
0.596, 4.732e-6
0.600, 5.191e-6
0.604, 5.721e-6
0.608, 6.592e-6
0.612, 7.675e-6
0.616, 8.853e-6
0.620, 1.045e-5
0.624, 1.275e-5
0.628, 1.540e-5
0.632, 1.865e-5
0.636, 2.231e-5
0.640, 2.586e-5
0.644, 2.885e-5
0.648, 3.177e-5
0.652, 3.410e-5
0.656, 3.596e-5
0.660, 3.714e-5
0.664, 3.795e-5
0.668, 3.872e-5
0.672, 3.895e-5
0.676, 3.858e-5
0.680, 3.840e-5
0.684, 3.821e-5
0.688, 3.786e-5
0.692, 3.792e-5
0.696, 3.808e-5
0.700, 3.886e-5
0.704, 3.973e-5
0.708, 4.103e-5
0.712, 4.259e-5
0.716, 4.447e-5
0.720, 4.652e-5
0.724, 4.901e-5
0.728, 5.114e-5
0.732, 5.339e-5
0.736, 5.561e-5
0.740, 5.751e-5
0.744, 5.928e-5
0.748, 6.128e-5
0.752, 6.325e-5
0.756, 6.486e-5
0.760, 6.601e-5
0.764, 6.739e-5
0.768, 6.807e-5
0.772, 6.870e-5
0.776, 6.905e-5
0.780, 6.892e-5
0.784, 6.875e-5
0.788, 6.829e-5
0.792, 6.738e-5
0.796, 6.691e-5
0.800, 6.571e-5
0.804, 6.458e-5
0.808, 6.336e-5
0.812, 6.185e-5
0.816, 6.041e-5
0.820, 5.887e-5
0.824, 5.700e-5
0.828, 5.522e-5
0.832, 5.337e-5
0.836, 5.134e-5
0.840, 4.905e-5
0.844, 4.710e-5
0.848, 4.506e-5
0.852, 4.291e-5
0.856, 4.106e-5
0.860, 3.928e-5
0.864, 3.721e-5
0.868, 3.539e-5
0.872, 3.399e-5
0.876, 3.231e-5
0.880, 3.113e-5
0.884, 2.984e-5
0.888, 2.870e-5
0.892, 2.778e-5
0.896, 2.665e-5
0.900, 2.578e-5
0.904, 2.503e-5
0.908, 2.418e-5
0.912, 2.338e-5
0.916, 2.279e-5
0.920, 2.200e-5
0.924, 2.142e-5
0.928, 2.098e-5
0.932, 2.025e-5
0.936, 1.982e-5
0.940, 1.932e-5
0.944, 1.873e-5
0.948, 1.827e-5
0.952, 1.779e-5
0.956, 1.740e-5
0.960, 1.699e-5
0.964, 1.674e-5
0.968, 1.632e-5
0.972, 1.592e-5
0.976, 1.563e-5
0.980, 1.550e-5
0.984, 1.512e-5
0.988, 1.488e-5
0.992, 1.471e-5
0.996, 1.441e-5
1.000, 1.427e-5
