July 21, 2025   20:21:25
Differential Pulse Voltammetry
File: e:\Data Source:  Experiment
Instrument Model:  CHI620E
Header: 
Note: 

Init E (V) = 0
Final E (V) = 1
Incr E (V) = 0.004
Amplitude (V) = 0.05
Pulse Width (sec) = 0.05
Sample Width (sec) = 0.0167
Pulse Period (sec) = 0.5
Quiet Time (sec) = 2
Sensitivity (A/V) = 0.01

Results:

Channel 1:
Ep = 0.112V
ip = 3.935e-7A
Ap = 8.083e-8VA

Ep = 0.788V
ip = 3.985e-5A
Ap = 5.518e-6VA

Potential/V, Current/A

0.004, 6.110e-6
0.008, 5.615e-6
0.012, 5.556e-6
0.016, 5.333e-6
0.020, 5.097e-6
0.024, 4.815e-6
0.028, 4.803e-6
0.032, 4.709e-6
0.036, 4.473e-6
0.040, 4.485e-6
0.044, 4.462e-6
0.048, 4.285e-6
0.052, 4.191e-6
0.056, 4.144e-6
0.060, 4.061e-6
0.064, 4.144e-6
0.068, 4.144e-6
0.072, 3.944e-6
0.076, 3.955e-6
0.080, 3.814e-6
0.084, 3.955e-6
0.088, 3.920e-6
0.092, 3.991e-6
0.096, 4.014e-6
0.100, 4.026e-6
0.104, 3.908e-6
0.108, 3.991e-6
0.112, 4.132e-6
0.116, 4.014e-6
0.120, 3.885e-6
0.124, 3.920e-6
0.128, 3.908e-6
0.132, 3.908e-6
0.136, 4.026e-6
0.140, 4.120e-6
0.144, 3.967e-6
0.148, 3.908e-6
0.152, 3.979e-6
0.156, 4.038e-6
0.160, 4.050e-6
0.164, 4.061e-6
0.168, 4.002e-6
0.172, 4.097e-6
0.176, 3.967e-6
0.180, 3.955e-6
0.184, 3.849e-6
0.188, 3.814e-6
0.192, 3.814e-6
0.196, 3.649e-6
0.200, 3.720e-6
0.204, 3.791e-6
0.208, 3.590e-6
0.212, 3.638e-6
0.216, 3.355e-6
0.220, 3.426e-6
0.224, 3.331e-6
0.228, 3.214e-6
0.232, 3.214e-6
0.236, 3.237e-6
0.240, 3.131e-6
0.244, 3.037e-6
0.248, 2.943e-6
0.252, 2.955e-6
0.256, 2.908e-6
0.260, 2.696e-6
0.264, 2.719e-6
0.268, 2.719e-6
0.272, 2.708e-6
0.276, 2.684e-6
0.280, 2.472e-6
0.284, 2.437e-6
0.288, 2.578e-6
0.292, 2.425e-6
0.296, 2.331e-6
0.300, 2.260e-6
0.304, 2.296e-6
0.308, 2.248e-6
0.312, 2.107e-6
0.316, 2.107e-6
0.320, 2.119e-6
0.324, 2.048e-6
0.328, 2.025e-6
0.332, 2.013e-6
0.336, 1.907e-6
0.340, 2.072e-6
0.344, 1.966e-6
0.348, 1.860e-6
0.352, 1.719e-6
0.356, 1.836e-6
0.360, 1.825e-6
0.364, 1.766e-6
0.368, 1.801e-6
0.372, 1.789e-6
0.376, 1.589e-6
0.380, 1.872e-6
0.384, 1.730e-6
0.388, 1.683e-6
0.392, 1.636e-6
0.396, 1.660e-6
0.400, 1.625e-6
0.404, 1.625e-6
0.408, 1.448e-6
0.412, 1.648e-6
0.416, 1.471e-6
0.420, 1.471e-6
0.424, 1.460e-6
0.428, 1.530e-6
0.432, 1.389e-6
0.436, 1.495e-6
0.440, 1.377e-6
0.444, 1.389e-6
0.448, 1.413e-6
0.452, 1.413e-6
0.456, 1.389e-6
0.460, 1.471e-6
0.464, 1.354e-6
0.468, 1.460e-6
0.472, 1.366e-6
0.476, 1.283e-6
0.480, 1.271e-6
0.484, 1.295e-6
0.488, 1.401e-6
0.492, 1.295e-6
0.496, 1.271e-6
0.500, 1.377e-6
0.504, 1.248e-6
0.508, 1.436e-6
0.512, 1.307e-6
0.516, 1.213e-6
0.520, 1.330e-6
0.524, 1.354e-6
0.528, 1.342e-6
0.532, 1.213e-6
0.536, 1.448e-6
0.540, 1.342e-6
0.544, 1.354e-6
0.548, 1.413e-6
0.552, 1.283e-6
0.556, 1.424e-6
0.560, 1.318e-6
0.564, 1.424e-6
0.568, 1.307e-6
0.572, 1.424e-6
0.576, 1.460e-6
0.580, 1.448e-6
0.584, 1.377e-6
0.588, 1.401e-6
0.592, 1.483e-6
0.596, 1.342e-6
0.600, 1.601e-6
0.604, 1.683e-6
0.608, 1.625e-6
0.612, 1.530e-6
0.616, 1.742e-6
0.620, 1.601e-6
0.624, 1.778e-6
0.628, 1.836e-6
0.632, 1.872e-6
0.636, 2.119e-6
0.640, 2.131e-6
0.644, 2.425e-6
0.648, 2.625e-6
0.652, 2.908e-6
0.656, 3.014e-6
0.660, 3.214e-6
0.664, 3.449e-6
0.668, 3.720e-6
0.672, 3.920e-6
0.676, 4.097e-6
0.680, 4.285e-6
0.684, 4.579e-6
0.688, 4.638e-6
0.692, 5.038e-6
0.696, 5.639e-6
0.700, 6.380e-6
0.704, 7.322e-6
0.708, 8.629e-6
0.712, 1.028e-5
0.716, 1.202e-5
0.720, 1.377e-5
0.724, 1.577e-5
0.728, 1.794e-5
0.732, 2.120e-5
0.736, 2.469e-5
0.740, 2.843e-5
0.744, 3.195e-5
0.748, 3.527e-5
0.752, 3.800e-5
0.756, 4.054e-5
0.760, 4.283e-5
0.764, 4.451e-5
0.768, 4.559e-5
0.772, 4.646e-5
0.776, 4.724e-5
0.780, 4.765e-5
0.784, 4.792e-5
0.788, 4.794e-5
0.792, 4.790e-5
0.796, 4.765e-5
0.800, 4.721e-5
0.804, 4.664e-5
0.808, 4.600e-5
0.812, 4.535e-5
0.816, 4.432e-5
0.820, 4.347e-5
0.824, 4.213e-5
0.828, 4.113e-5
0.832, 3.991e-5
0.836, 3.858e-5
0.840, 3.719e-5
0.844, 3.614e-5
0.848, 3.500e-5
0.852, 3.370e-5
0.856, 3.236e-5
0.860, 3.142e-5
0.864, 3.050e-5
0.868, 2.941e-5
0.872, 2.844e-5
0.876, 2.766e-5
0.880, 2.710e-5
0.884, 2.623e-5
0.888, 2.558e-5
0.892, 2.489e-5
0.896, 2.417e-5
0.900, 2.343e-5
0.904, 2.293e-5
0.908, 2.219e-5
0.912, 2.185e-5
0.916, 2.102e-5
0.920, 2.070e-5
0.924, 2.018e-5
0.928, 1.966e-5
0.932, 1.924e-5
0.936, 1.884e-5
0.940, 1.859e-5
0.944, 1.803e-5
0.948, 1.755e-5
0.952, 1.720e-5
0.956, 1.693e-5
0.960, 1.655e-5
0.964, 1.633e-5
0.968, 1.594e-5
0.972, 1.580e-5
0.976, 1.542e-5
0.980, 1.524e-5
0.984, 1.493e-5
0.988, 1.484e-5
0.992, 1.480e-5
0.996, 1.447e-5
1.000, 1.417e-5
