July 14, 2025   12:21:32
Differential Pulse Voltammetry
File: e:\Data Source:  Experiment
Instrument Model:  CHI620E
Header: 
Note: 

Init E (V) = 0
Final E (V) = 1
Incr E (V) = 0.004
Amplitude (V) = 0.05
Pulse Width (sec) = 0.05
Sample Width (sec) = 0.0167
Pulse Period (sec) = 0.5
Quiet Time (sec) = 2
Sensitivity (A/V) = 0.01

Results:

Channel 1:
Ep = 0.680V
ip = 1.886e-5A
Ap = 1.220e-6VA

Potential/V, Current/A

0.004, 8.994e-6
0.008, 8.217e-6
0.012, 7.664e-6
0.016, 7.346e-6
0.020, 7.110e-6
0.024, 6.828e-6
0.028, 6.698e-6
0.032, 6.686e-6
0.036, 6.533e-6
0.040, 6.439e-6
0.044, 6.416e-6
0.048, 6.157e-6
0.052, 6.051e-6
0.056, 5.957e-6
0.060, 5.921e-6
0.064, 5.698e-6
0.068, 5.580e-6
0.072, 5.568e-6
0.076, 5.651e-6
0.080, 5.403e-6
0.084, 5.297e-6
0.088, 5.274e-6
0.092, 5.297e-6
0.096, 5.038e-6
0.100, 5.144e-6
0.104, 5.144e-6
0.108, 5.027e-6
0.112, 5.062e-6
0.116, 4.909e-6
0.120, 4.921e-6
0.124, 4.909e-6
0.128, 4.909e-6
0.132, 4.721e-6
0.136, 4.603e-6
0.140, 4.721e-6
0.144, 4.709e-6
0.148, 4.697e-6
0.152, 4.344e-6
0.156, 4.591e-6
0.160, 4.615e-6
0.164, 4.485e-6
0.168, 4.344e-6
0.172, 4.391e-6
0.176, 4.520e-6
0.180, 4.214e-6
0.184, 4.261e-6
0.188, 4.120e-6
0.192, 4.250e-6
0.196, 4.050e-6
0.200, 4.073e-6
0.204, 3.920e-6
0.208, 3.897e-6
0.212, 3.849e-6
0.216, 3.743e-6
0.220, 3.873e-6
0.224, 3.720e-6
0.228, 3.590e-6
0.232, 3.567e-6
0.236, 3.473e-6
0.240, 3.649e-6
0.244, 3.461e-6
0.248, 3.331e-6
0.252, 3.508e-6
0.256, 3.367e-6
0.260, 3.155e-6
0.264, 3.343e-6
0.268, 3.284e-6
0.272, 3.214e-6
0.276, 3.237e-6
0.280, 3.143e-6
0.284, 3.131e-6
0.288, 2.943e-6
0.292, 2.990e-6
0.296, 3.014e-6
0.300, 3.072e-6
0.304, 3.096e-6
0.308, 2.955e-6
0.312, 3.049e-6
0.316, 2.931e-6
0.320, 3.084e-6
0.324, 2.896e-6
0.328, 2.872e-6
0.332, 3.037e-6
0.336, 2.931e-6
0.340, 2.743e-6
0.344, 2.837e-6
0.348, 2.766e-6
0.352, 2.743e-6
0.356, 2.849e-6
0.360, 2.837e-6
0.364, 2.743e-6
0.368, 2.755e-6
0.372, 2.755e-6
0.376, 2.766e-6
0.380, 2.649e-6
0.384, 2.755e-6
0.388, 2.613e-6
0.392, 2.660e-6
0.396, 2.719e-6
0.400, 2.684e-6
0.404, 2.649e-6
0.408, 2.660e-6
0.412, 2.743e-6
0.416, 2.519e-6
0.420, 2.484e-6
0.424, 2.660e-6
0.428, 2.602e-6
0.432, 2.613e-6
0.436, 2.543e-6
0.440, 2.519e-6
0.444, 2.578e-6
0.448, 2.637e-6
0.452, 2.425e-6
0.456, 2.413e-6
0.460, 2.484e-6
0.464, 2.460e-6
0.468, 2.472e-6
0.472, 2.366e-6
0.476, 2.413e-6
0.480, 2.425e-6
0.484, 2.319e-6
0.488, 2.354e-6
0.492, 2.390e-6
0.496, 2.307e-6
0.500, 2.437e-6
0.504, 2.319e-6
0.508, 2.307e-6
0.512, 2.460e-6
0.516, 2.237e-6
0.520, 2.307e-6
0.524, 2.425e-6
0.528, 2.519e-6
0.532, 2.449e-6
0.536, 2.449e-6
0.540, 2.543e-6
0.544, 2.578e-6
0.548, 2.531e-6
0.552, 2.437e-6
0.556, 2.625e-6
0.560, 2.613e-6
0.564, 2.743e-6
0.568, 2.814e-6
0.572, 2.919e-6
0.576, 3.061e-6
0.580, 3.120e-6
0.584, 3.273e-6
0.588, 3.508e-6
0.592, 3.838e-6
0.596, 3.885e-6
0.600, 4.297e-6
0.604, 4.662e-6
0.608, 5.027e-6
0.612, 5.403e-6
0.616, 5.874e-6
0.620, 6.592e-6
0.624, 7.334e-6
0.628, 8.311e-6
0.632, 9.441e-6
0.636, 1.075e-5
0.640, 1.223e-5
0.644, 1.396e-5
0.648, 1.597e-5
0.652, 1.845e-5
0.656, 2.086e-5
0.660, 2.358e-5
0.664, 2.645e-5
0.668, 2.951e-5
0.672, 3.196e-5
0.676, 3.380e-5
0.680, 3.457e-5
0.684, 3.447e-5
0.688, 3.376e-5
0.692, 3.287e-5
0.696, 3.178e-5
0.700, 3.107e-5
0.704, 3.031e-5
0.708, 2.970e-5
0.712, 2.923e-5
0.716, 2.868e-5
0.720, 2.825e-5
0.724, 2.798e-5
0.728, 2.729e-5
0.732, 2.692e-5
0.736, 2.670e-5
0.740, 2.622e-5
0.744, 2.591e-5
0.748, 2.556e-5
0.752, 2.526e-5
0.756, 2.496e-5
0.760, 2.479e-5
0.764, 2.458e-5
0.768, 2.452e-5
0.772, 2.437e-5
0.776, 2.446e-5
0.780, 2.424e-5
0.784, 2.437e-5
0.788, 2.424e-5
0.792, 2.421e-5
0.796, 2.424e-5
0.800, 2.413e-5
0.804, 2.416e-5
0.808, 2.410e-5
0.812, 2.397e-5
0.816, 2.360e-5
0.820, 2.345e-5
0.824, 2.299e-5
0.828, 2.288e-5
0.832, 2.264e-5
0.836, 2.206e-5
0.840, 2.178e-5
0.844, 2.131e-5
0.848, 2.095e-5
0.852, 2.027e-5
0.856, 1.997e-5
0.860, 1.942e-5
0.864, 1.889e-5
0.868, 1.836e-5
0.872, 1.782e-5
0.876, 1.758e-5
0.880, 1.700e-5
0.884, 1.632e-5
0.888, 1.601e-5
0.892, 1.557e-5
0.896, 1.523e-5
0.900, 1.453e-5
0.904, 1.419e-5
0.908, 1.397e-5
0.912, 1.362e-5
0.916, 1.334e-5
0.920, 1.289e-5
0.924, 1.260e-5
0.928, 1.236e-5
0.932, 1.205e-5
0.936, 1.187e-5
0.940, 1.170e-5
0.944, 1.145e-5
0.948, 1.121e-5
0.952, 1.095e-5
0.956, 1.090e-5
0.960, 1.071e-5
0.964, 1.047e-5
0.968, 1.042e-5
0.972, 1.029e-5
0.976, 1.024e-5
0.980, 1.025e-5
0.984, 1.008e-5
0.988, 9.912e-6
0.992, 9.865e-6
0.996, 9.759e-6
1.000, 9.688e-6
