July 21, 2025   20:59:03
Differential Pulse Voltammetry
File: e:\Data Source:  Experiment
Instrument Model:  CHI620E
Header: 
Note: 

Init E (V) = 0
Final E (V) = 1
Incr E (V) = 0.004
Amplitude (V) = 0.05
Pulse Width (sec) = 0.05
Sample Width (sec) = 0.0167
Pulse Period (sec) = 0.5
Quiet Time (sec) = 2
Sensitivity (A/V) = 0.01

Results:

Channel 1:
Ep = 0.236V
ip = 1.254e-6A
Ap = 1.979e-7VA

Ep = 0.668V
ip = 1.771e-5A
Ap = 6.942e-7VA

Potential/V, Current/A

0.004, 6.710e-6
0.008, 6.027e-6
0.012, 5.721e-6
0.016, 5.450e-6
0.020, 5.286e-6
0.024, 5.180e-6
0.028, 4.956e-6
0.032, 4.944e-6
0.036, 4.909e-6
0.040, 4.744e-6
0.044, 4.709e-6
0.048, 4.591e-6
0.052, 4.532e-6
0.056, 4.450e-6
0.060, 4.356e-6
0.064, 4.108e-6
0.068, 4.261e-6
0.072, 4.332e-6
0.076, 4.120e-6
0.080, 4.203e-6
0.084, 4.238e-6
0.088, 4.156e-6
0.092, 4.014e-6
0.096, 4.156e-6
0.100, 4.097e-6
0.104, 4.297e-6
0.108, 4.191e-6
0.112, 4.320e-6
0.116, 4.214e-6
0.120, 4.250e-6
0.124, 4.356e-6
0.128, 4.273e-6
0.132, 4.297e-6
0.136, 4.426e-6
0.140, 4.379e-6
0.144, 4.356e-6
0.148, 4.579e-6
0.152, 4.367e-6
0.156, 4.568e-6
0.160, 4.721e-6
0.164, 4.685e-6
0.168, 4.768e-6
0.172, 4.732e-6
0.176, 4.827e-6
0.180, 4.838e-6
0.184, 4.862e-6
0.188, 4.968e-6
0.192, 4.980e-6
0.196, 4.980e-6
0.200, 4.968e-6
0.204, 5.074e-6
0.208, 5.180e-6
0.212, 5.121e-6
0.216, 5.062e-6
0.220, 5.203e-6
0.224, 5.133e-6
0.228, 5.168e-6
0.232, 5.121e-6
0.236, 5.274e-6
0.240, 5.227e-6
0.244, 5.227e-6
0.248, 5.168e-6
0.252, 5.262e-6
0.256, 5.274e-6
0.260, 5.133e-6
0.264, 5.038e-6
0.268, 5.097e-6
0.272, 5.050e-6
0.276, 4.968e-6
0.280, 4.909e-6
0.284, 5.050e-6
0.288, 5.038e-6
0.292, 4.932e-6
0.296, 4.862e-6
0.300, 4.732e-6
0.304, 4.803e-6
0.308, 4.744e-6
0.312, 4.591e-6
0.316, 4.685e-6
0.320, 4.615e-6
0.324, 4.615e-6
0.328, 4.497e-6
0.332, 4.591e-6
0.336, 4.591e-6
0.340, 4.426e-6
0.344, 4.438e-6
0.348, 4.462e-6
0.352, 4.509e-6
0.356, 4.238e-6
0.360, 4.203e-6
0.364, 4.273e-6
0.368, 4.214e-6
0.372, 4.214e-6
0.376, 4.108e-6
0.380, 4.238e-6
0.384, 4.014e-6
0.388, 3.944e-6
0.392, 4.050e-6
0.396, 4.085e-6
0.400, 4.026e-6
0.404, 4.002e-6
0.408, 4.038e-6
0.412, 4.002e-6
0.416, 3.885e-6
0.420, 3.897e-6
0.424, 3.826e-6
0.428, 3.873e-6
0.432, 3.802e-6
0.436, 3.696e-6
0.440, 3.602e-6
0.444, 3.661e-6
0.448, 3.708e-6
0.452, 3.638e-6
0.456, 3.720e-6
0.460, 3.579e-6
0.464, 3.579e-6
0.468, 3.555e-6
0.472, 3.555e-6
0.476, 3.555e-6
0.480, 3.602e-6
0.484, 3.414e-6
0.488, 3.414e-6
0.492, 3.390e-6
0.496, 3.367e-6
0.500, 3.331e-6
0.504, 3.284e-6
0.508, 3.273e-6
0.512, 3.284e-6
0.516, 3.155e-6
0.520, 3.249e-6
0.524, 3.284e-6
0.528, 3.320e-6
0.532, 3.167e-6
0.536, 3.296e-6
0.540, 3.237e-6
0.544, 3.284e-6
0.548, 3.237e-6
0.552, 3.367e-6
0.556, 3.320e-6
0.560, 3.426e-6
0.564, 3.485e-6
0.568, 3.508e-6
0.572, 3.861e-6
0.576, 3.955e-6
0.580, 4.026e-6
0.584, 4.556e-6
0.588, 4.744e-6
0.592, 5.215e-6
0.596, 5.486e-6
0.600, 6.121e-6
0.604, 6.957e-6
0.608, 7.817e-6
0.612, 9.006e-6
0.616, 1.039e-5
0.620, 1.260e-5
0.624, 1.508e-5
0.628, 1.827e-5
0.632, 2.244e-5
0.636, 2.736e-5
0.640, 3.314e-5
0.644, 3.867e-5
0.648, 4.422e-5
0.652, 4.884e-5
0.656, 5.255e-5
0.660, 5.492e-5
0.664, 5.592e-5
0.668, 5.635e-5
0.672, 5.619e-5
0.676, 5.527e-5
0.680, 5.375e-5
0.684, 5.233e-5
0.688, 5.073e-5
0.692, 4.951e-5
0.696, 4.868e-5
0.700, 4.830e-5
0.704, 4.821e-5
0.708, 4.838e-5
0.712, 4.891e-5
0.716, 5.004e-5
0.720, 5.101e-5
0.724, 5.237e-5
0.728, 5.377e-5
0.732, 5.555e-5
0.736, 5.713e-5
0.740, 5.867e-5
0.744, 6.021e-5
0.748, 6.160e-5
0.752, 6.285e-5
0.756, 6.383e-5
0.760, 6.475e-5
0.764, 6.535e-5
0.768, 6.549e-5
0.772, 6.571e-5
0.776, 6.563e-5
0.780, 6.553e-5
0.784, 6.502e-5
0.788, 6.433e-5
0.792, 6.355e-5
0.796, 6.267e-5
0.800, 6.181e-5
0.804, 6.047e-5
0.808, 5.913e-5
0.812, 5.777e-5
0.816, 5.603e-5
0.820, 5.433e-5
0.824, 5.241e-5
0.828, 5.044e-5
0.832, 4.817e-5
0.836, 4.602e-5
0.840, 4.387e-5
0.844, 4.193e-5
0.848, 3.978e-5
0.852, 3.767e-5
0.856, 3.586e-5
0.860, 3.409e-5
0.864, 3.250e-5
0.868, 3.095e-5
0.872, 2.957e-5
0.876, 2.830e-5
0.880, 2.709e-5
0.884, 2.600e-5
0.888, 2.511e-5
0.892, 2.420e-5
0.896, 2.324e-5
0.900, 2.240e-5
0.904, 2.184e-5
0.908, 2.117e-5
0.912, 2.048e-5
0.916, 1.981e-5
0.920, 1.932e-5
0.924, 1.888e-5
0.928, 1.835e-5
0.932, 1.774e-5
0.936, 1.736e-5
0.940, 1.687e-5
0.944, 1.641e-5
0.948, 1.625e-5
0.952, 1.566e-5
0.956, 1.533e-5
0.960, 1.517e-5
0.964, 1.483e-5
0.968, 1.455e-5
0.972, 1.430e-5
0.976, 1.410e-5
0.980, 1.380e-5
0.984, 1.355e-5
0.988, 1.348e-5
0.992, 1.316e-5
0.996, 1.317e-5
1.000, 1.300e-5
