July 15, 2025   14:50:24
Differential Pulse Voltammetry
File: e:\Data Source:  Experiment
Instrument Model:  CHI620E
Header: 
Note: 

Init E (V) = 0
Final E (V) = 1
Incr E (V) = 0.004
Amplitude (V) = 0.05
Pulse Width (sec) = 0.05
Sample Width (sec) = 0.0167
Pulse Period (sec) = 0.5
Quiet Time (sec) = 2
Sensitivity (A/V) = 0.01

Results:

Channel 1:

Potential/V, Current/A

0.004, 1.729e-5
0.008, 1.623e-5
0.012, 1.544e-5
0.016, 1.471e-5
0.020, 1.363e-5
0.024, 1.293e-5
0.028, 1.224e-5
0.032, 1.158e-5
0.036, 1.115e-5
0.040, 1.087e-5
0.044, 1.050e-5
0.048, 1.043e-5
0.052, 1.012e-5
0.056, 9.924e-6
0.060, 9.959e-6
0.064, 9.877e-6
0.068, 9.771e-6
0.072, 9.712e-6
0.076, 9.618e-6
0.080, 9.547e-6
0.084, 9.453e-6
0.088, 9.382e-6
0.092, 9.312e-6
0.096, 9.382e-6
0.100, 9.217e-6
0.104, 9.170e-6
0.108, 9.147e-6
0.112, 8.923e-6
0.116, 8.923e-6
0.120, 8.699e-6
0.124, 8.853e-6
0.128, 8.747e-6
0.132, 8.570e-6
0.136, 8.523e-6
0.140, 8.440e-6
0.144, 8.405e-6
0.148, 8.240e-6
0.152, 8.217e-6
0.156, 8.087e-6
0.160, 8.064e-6
0.164, 7.993e-6
0.168, 7.934e-6
0.172, 7.781e-6
0.176, 7.722e-6
0.180, 7.640e-6
0.184, 7.558e-6
0.188, 7.487e-6
0.192, 7.452e-6
0.196, 7.193e-6
0.200, 7.051e-6
0.204, 7.122e-6
0.208, 7.040e-6
0.212, 6.969e-6
0.216, 6.875e-6
0.220, 6.804e-6
0.224, 6.663e-6
0.228, 6.557e-6
0.232, 6.557e-6
0.236, 6.616e-6
0.240, 6.439e-6
0.244, 6.333e-6
0.248, 6.333e-6
0.252, 6.286e-6
0.256, 6.145e-6
0.260, 5.862e-6
0.264, 6.157e-6
0.268, 5.968e-6
0.272, 5.933e-6
0.276, 5.839e-6
0.280, 5.745e-6
0.284, 5.709e-6
0.288, 5.768e-6
0.292, 5.450e-6
0.296, 5.698e-6
0.300, 5.498e-6
0.304, 5.439e-6
0.308, 5.533e-6
0.312, 5.321e-6
0.316, 5.286e-6
0.320, 5.392e-6
0.324, 5.156e-6
0.328, 5.286e-6
0.332, 5.203e-6
0.336, 5.239e-6
0.340, 5.144e-6
0.344, 5.109e-6
0.348, 5.062e-6
0.352, 5.050e-6
0.356, 4.980e-6
0.360, 5.015e-6
0.364, 4.980e-6
0.368, 5.144e-6
0.372, 4.885e-6
0.376, 4.862e-6
0.380, 5.027e-6
0.384, 4.991e-6
0.388, 4.838e-6
0.392, 4.791e-6
0.396, 4.921e-6
0.400, 4.909e-6
0.404, 4.756e-6
0.408, 4.615e-6
0.412, 4.756e-6
0.416, 4.850e-6
0.420, 4.744e-6
0.424, 4.662e-6
0.428, 4.744e-6
0.432, 4.615e-6
0.436, 4.673e-6
0.440, 4.568e-6
0.444, 4.556e-6
0.448, 4.556e-6
0.452, 4.532e-6
0.456, 4.532e-6
0.460, 4.450e-6
0.464, 4.520e-6
0.468, 4.544e-6
0.472, 4.520e-6
0.476, 4.473e-6
0.480, 4.615e-6
0.484, 4.544e-6
0.488, 4.473e-6
0.492, 4.579e-6
0.496, 4.544e-6
0.500, 4.650e-6
0.504, 4.568e-6
0.508, 4.544e-6
0.512, 4.732e-6
0.516, 4.638e-6
0.520, 4.815e-6
0.524, 4.791e-6
0.528, 4.980e-6
0.532, 5.097e-6
0.536, 5.309e-6
0.540, 5.568e-6
0.544, 5.698e-6
0.548, 5.992e-6
0.552, 6.192e-6
0.556, 6.522e-6
0.560, 7.028e-6
0.564, 7.475e-6
0.568, 8.134e-6
0.572, 8.982e-6
0.576, 9.983e-6
0.580, 1.130e-5
0.584, 1.253e-5
0.588, 1.426e-5
0.592, 1.641e-5
0.596, 1.874e-5
0.600, 2.114e-5
0.604, 2.469e-5
0.608, 2.882e-5
0.612, 3.234e-5
0.616, 3.752e-5
0.620, 4.165e-5
0.624, 4.672e-5
0.628, 4.941e-5
0.632, 5.209e-5
0.636, 5.417e-5
0.640, 5.518e-5
0.644, 5.662e-5
0.648, 5.784e-5
0.652, 5.853e-5
0.656, 5.951e-5
0.660, 6.045e-5
0.664, 6.113e-5
0.668, 6.171e-5
0.672, 6.193e-5
0.676, 6.179e-5
0.680, 6.148e-5
0.684, 6.087e-5
0.688, 6.060e-5
0.692, 6.051e-5
0.696, 6.073e-5
0.700, 6.146e-5
0.704, 6.159e-5
0.708, 6.251e-5
0.712, 6.311e-5
0.716, 6.406e-5
0.720, 6.455e-5
0.724, 6.505e-5
0.728, 6.573e-5
0.732, 6.638e-5
0.736, 6.701e-5
0.740, 6.769e-5
0.744, 6.779e-5
0.748, 6.863e-5
0.752, 6.892e-5
0.756, 6.950e-5
0.760, 6.988e-5
0.764, 7.066e-5
0.768, 7.074e-5
0.772, 7.117e-5
0.776, 7.164e-5
0.780, 7.203e-5
0.784, 7.213e-5
0.788, 7.217e-5
0.792, 7.193e-5
0.796, 7.186e-5
0.800, 7.155e-5
0.804, 7.089e-5
0.808, 7.051e-5
0.812, 6.973e-5
0.816, 6.905e-5
0.820, 6.795e-5
0.824, 6.674e-5
0.828, 6.563e-5
0.832, 6.424e-5
0.836, 6.278e-5
0.840, 6.105e-5
0.844, 5.921e-5
0.848, 5.745e-5
0.852, 5.536e-5
0.856, 5.324e-5
0.860, 5.108e-5
0.864, 4.908e-5
0.868, 4.677e-5
0.872, 4.451e-5
0.876, 4.236e-5
0.880, 4.041e-5
0.884, 3.842e-5
0.888, 3.628e-5
0.892, 3.470e-5
0.896, 3.296e-5
0.900, 3.123e-5
0.904, 2.978e-5
0.908, 2.857e-5
0.912, 2.732e-5
0.916, 2.612e-5
0.920, 2.512e-5
0.924, 2.397e-5
0.928, 2.304e-5
0.932, 2.215e-5
0.936, 2.139e-5
0.940, 2.077e-5
0.944, 2.011e-5
0.948, 1.934e-5
0.952, 1.882e-5
0.956, 1.852e-5
0.960, 1.799e-5
0.964, 1.749e-5
0.968, 1.720e-5
0.972, 1.693e-5
0.976, 1.652e-5
0.980, 1.615e-5
0.984, 1.609e-5
0.988, 1.592e-5
0.992, 1.576e-5
0.996, 1.547e-5
1.000, 1.530e-5
