July 15, 2025   14:54:44
Differential Pulse Voltammetry
File: e:\Data Source:  Experiment
Instrument Model:  CHI620E
Header: 
Note: 

Init E (V) = 0
Final E (V) = 1
Incr E (V) = 0.004
Amplitude (V) = 0.05
Pulse Width (sec) = 0.05
Sample Width (sec) = 0.0167
Pulse Period (sec) = 0.5
Quiet Time (sec) = 2
Sensitivity (A/V) = 0.01

Results:

Channel 1:

Potential/V, Current/A

0.004, 1.710e-5
0.008, 1.626e-5
0.012, 1.554e-5
0.016, 1.474e-5
0.020, 1.363e-5
0.024, 1.283e-5
0.028, 1.215e-5
0.032, 1.167e-5
0.036, 1.125e-5
0.040, 1.111e-5
0.044, 1.081e-5
0.048, 1.057e-5
0.052, 1.048e-5
0.056, 1.021e-5
0.060, 1.027e-5
0.064, 1.007e-5
0.068, 1.010e-5
0.072, 9.888e-6
0.076, 9.924e-6
0.080, 9.759e-6
0.084, 9.618e-6
0.088, 9.547e-6
0.092, 9.535e-6
0.096, 9.429e-6
0.100, 9.088e-6
0.104, 9.159e-6
0.108, 9.123e-6
0.112, 9.064e-6
0.116, 8.853e-6
0.120, 8.664e-6
0.124, 8.546e-6
0.128, 8.570e-6
0.132, 8.464e-6
0.136, 8.393e-6
0.140, 8.546e-6
0.144, 8.264e-6
0.148, 8.087e-6
0.152, 7.864e-6
0.156, 8.052e-6
0.160, 7.946e-6
0.164, 7.817e-6
0.168, 7.734e-6
0.172, 7.640e-6
0.176, 7.605e-6
0.180, 7.463e-6
0.184, 7.299e-6
0.188, 7.346e-6
0.192, 7.346e-6
0.196, 7.252e-6
0.200, 7.146e-6
0.204, 6.934e-6
0.208, 6.934e-6
0.212, 6.804e-6
0.216, 6.628e-6
0.220, 6.698e-6
0.224, 6.569e-6
0.228, 6.427e-6
0.232, 6.439e-6
0.236, 6.357e-6
0.240, 6.157e-6
0.244, 6.145e-6
0.248, 6.204e-6
0.252, 6.145e-6
0.256, 6.051e-6
0.260, 5.921e-6
0.264, 5.874e-6
0.268, 5.886e-6
0.272, 5.745e-6
0.276, 5.862e-6
0.280, 5.686e-6
0.284, 5.686e-6
0.288, 5.474e-6
0.292, 5.498e-6
0.296, 5.568e-6
0.300, 5.474e-6
0.304, 5.509e-6
0.308, 5.392e-6
0.312, 5.368e-6
0.316, 5.568e-6
0.320, 5.344e-6
0.324, 5.015e-6
0.328, 5.227e-6
0.332, 5.250e-6
0.336, 5.286e-6
0.340, 5.262e-6
0.344, 5.050e-6
0.348, 5.109e-6
0.352, 5.085e-6
0.356, 5.027e-6
0.360, 5.085e-6
0.364, 5.038e-6
0.368, 5.015e-6
0.372, 4.980e-6
0.376, 5.074e-6
0.380, 4.862e-6
0.384, 4.980e-6
0.388, 4.815e-6
0.392, 4.862e-6
0.396, 4.862e-6
0.400, 4.956e-6
0.404, 4.744e-6
0.408, 4.768e-6
0.412, 4.862e-6
0.416, 4.615e-6
0.420, 4.615e-6
0.424, 4.591e-6
0.428, 4.744e-6
0.432, 4.650e-6
0.436, 4.744e-6
0.440, 4.579e-6
0.444, 4.603e-6
0.448, 4.556e-6
0.452, 4.520e-6
0.456, 4.650e-6
0.460, 4.556e-6
0.464, 4.685e-6
0.468, 4.568e-6
0.472, 4.615e-6
0.476, 4.685e-6
0.480, 4.850e-6
0.484, 4.709e-6
0.488, 4.791e-6
0.492, 4.744e-6
0.496, 4.909e-6
0.500, 5.003e-6
0.504, 5.191e-6
0.508, 5.227e-6
0.512, 5.474e-6
0.516, 5.309e-6
0.520, 5.651e-6
0.524, 5.898e-6
0.528, 6.263e-6
0.532, 6.757e-6
0.536, 7.075e-6
0.540, 7.687e-6
0.544, 8.323e-6
0.548, 9.241e-6
0.552, 1.032e-5
0.556, 1.125e-5
0.560, 1.238e-5
0.564, 1.391e-5
0.568, 1.553e-5
0.572, 1.755e-5
0.576, 1.984e-5
0.580, 2.246e-5
0.584, 2.542e-5
0.588, 2.842e-5
0.592, 3.134e-5
0.596, 3.448e-5
0.600, 3.743e-5
0.604, 3.968e-5
0.608, 4.186e-5
0.612, 4.452e-5
0.616, 4.615e-5
0.620, 4.830e-5
0.624, 4.891e-5
0.628, 5.153e-5
0.632, 5.277e-5
0.636, 5.493e-5
0.640, 5.674e-5
0.644, 5.849e-5
0.648, 6.026e-5
0.652, 6.137e-5
0.656, 6.160e-5
0.660, 6.209e-5
0.664, 6.136e-5
0.668, 6.154e-5
0.672, 5.999e-5
0.676, 6.018e-5
0.680, 6.091e-5
0.684, 6.178e-5
0.688, 5.600e-5
0.692, 6.282e-5
0.696, 6.329e-5
0.700, 6.360e-5
0.704, 6.431e-5
0.708, 6.491e-5
0.712, 6.550e-5
0.716, 6.625e-5
0.720, 6.722e-5
0.724, 6.860e-5
0.728, 6.791e-5
0.732, 6.856e-5
0.736, 6.840e-5
0.740, 6.865e-5
0.744, 6.869e-5
0.748, 6.956e-5
0.752, 7.046e-5
0.756, 7.060e-5
0.760, 7.062e-5
0.764, 6.830e-5
0.768, 6.904e-5
0.772, 6.920e-5
0.776, 6.824e-5
0.780, 6.960e-5
0.784, 6.769e-5
0.788, 6.901e-5
0.792, 6.850e-5
0.796, 6.847e-5
0.800, 6.730e-5
0.804, 6.544e-5
0.808, 6.420e-5
0.812, 6.230e-5
0.816, 6.164e-5
0.820, 5.904e-5
0.824, 5.761e-5
0.828, 5.561e-5
0.832, 5.407e-5
0.836, 4.965e-5
0.840, 5.088e-5
0.844, 4.940e-5
0.848, 4.790e-5
0.852, 4.558e-5
0.856, 4.319e-5
0.860, 4.176e-5
0.864, 3.966e-5
0.868, 3.786e-5
0.872, 3.593e-5
0.876, 3.447e-5
0.880, 3.288e-5
0.884, 3.141e-5
0.888, 3.005e-5
0.892, 2.831e-5
0.896, 2.696e-5
0.900, 2.571e-5
0.904, 2.476e-5
0.908, 2.409e-5
0.912, 2.385e-5
0.916, 2.285e-5
0.920, 2.185e-5
0.924, 2.099e-5
0.928, 2.049e-5
0.932, 1.978e-5
0.936, 1.944e-5
0.940, 1.908e-5
0.944, 1.858e-5
0.948, 1.821e-5
0.952, 1.781e-5
0.956, 1.739e-5
0.960, 1.715e-5
0.964, 1.701e-5
0.968, 1.653e-5
0.972, 1.649e-5
0.976, 1.589e-5
0.980, 1.575e-5
0.984, 1.576e-5
0.988, 1.548e-5
0.992, 1.547e-5
0.996, 1.523e-5
1.000, 1.540e-5
