July 23, 2025   17:56:51
Differential Pulse Voltammetry
File: e:\Data Source:  Experiment
Instrument Model:  CHI620E
Header: 
Note: 

Init E (V) = 0
Final E (V) = 1
Incr E (V) = 0.004
Amplitude (V) = 0.05
Pulse Width (sec) = 0.05
Sample Width (sec) = 0.0167
Pulse Period (sec) = 0.5
Quiet Time (sec) = 2
Sensitivity (A/V) = 0.01

Results:

Channel 1:
Ep = 0.672V
ip = 2.660e-5A
Ap = 1.856e-6VA

Potential/V, Current/A

0.004, 5.085e-6
0.008, 4.932e-6
0.012, 4.779e-6
0.016, 4.744e-6
0.020, 4.779e-6
0.024, 4.367e-6
0.028, 4.297e-6
0.032, 4.203e-6
0.036, 4.120e-6
0.040, 4.085e-6
0.044, 3.967e-6
0.048, 3.791e-6
0.052, 3.932e-6
0.056, 3.614e-6
0.060, 3.614e-6
0.064, 3.567e-6
0.068, 3.685e-6
0.072, 3.602e-6
0.076, 3.520e-6
0.080, 3.567e-6
0.084, 3.437e-6
0.088, 3.237e-6
0.092, 3.461e-6
0.096, 3.355e-6
0.100, 3.496e-6
0.104, 3.061e-6
0.108, 3.308e-6
0.112, 3.014e-6
0.116, 3.214e-6
0.120, 3.061e-6
0.124, 3.061e-6
0.128, 3.178e-6
0.132, 2.919e-6
0.136, 3.014e-6
0.140, 3.002e-6
0.144, 3.002e-6
0.148, 2.990e-6
0.152, 3.025e-6
0.156, 2.849e-6
0.160, 2.978e-6
0.164, 2.943e-6
0.168, 2.919e-6
0.172, 2.872e-6
0.176, 2.755e-6
0.180, 2.660e-6
0.184, 2.590e-6
0.188, 2.790e-6
0.192, 2.825e-6
0.196, 2.590e-6
0.200, 2.672e-6
0.204, 2.590e-6
0.208, 2.637e-6
0.212, 2.496e-6
0.216, 2.519e-6
0.220, 2.566e-6
0.224, 2.484e-6
0.228, 2.460e-6
0.232, 2.401e-6
0.236, 2.484e-6
0.240, 2.390e-6
0.244, 2.331e-6
0.248, 2.260e-6
0.252, 2.425e-6
0.256, 2.237e-6
0.260, 2.213e-6
0.264, 2.284e-6
0.268, 2.201e-6
0.272, 2.272e-6
0.276, 2.296e-6
0.280, 2.178e-6
0.284, 2.225e-6
0.288, 2.166e-6
0.292, 2.237e-6
0.296, 2.131e-6
0.300, 2.166e-6
0.304, 2.060e-6
0.308, 2.201e-6
0.312, 2.095e-6
0.316, 2.084e-6
0.320, 2.072e-6
0.324, 2.095e-6
0.328, 1.989e-6
0.332, 2.095e-6
0.336, 2.084e-6
0.340, 2.025e-6
0.344, 1.989e-6
0.348, 2.025e-6
0.352, 2.013e-6
0.356, 2.025e-6
0.360, 1.954e-6
0.364, 2.025e-6
0.368, 2.060e-6
0.372, 2.001e-6
0.376, 2.084e-6
0.380, 2.048e-6
0.384, 2.225e-6
0.388, 1.989e-6
0.392, 1.978e-6
0.396, 2.131e-6
0.400, 1.966e-6
0.404, 2.048e-6
0.408, 1.954e-6
0.412, 2.119e-6
0.416, 1.978e-6
0.420, 1.872e-6
0.424, 2.013e-6
0.428, 1.919e-6
0.432, 2.060e-6
0.436, 1.966e-6
0.440, 1.801e-6
0.444, 2.025e-6
0.448, 1.966e-6
0.452, 1.836e-6
0.456, 1.813e-6
0.460, 1.848e-6
0.464, 1.884e-6
0.468, 1.895e-6
0.472, 1.813e-6
0.476, 1.895e-6
0.480, 1.848e-6
0.484, 1.954e-6
0.488, 1.942e-6
0.492, 1.907e-6
0.496, 1.919e-6
0.500, 1.919e-6
0.504, 1.825e-6
0.508, 2.048e-6
0.512, 1.895e-6
0.516, 1.919e-6
0.520, 1.919e-6
0.524, 1.931e-6
0.528, 1.989e-6
0.532, 1.907e-6
0.536, 1.966e-6
0.540, 2.025e-6
0.544, 2.025e-6
0.548, 1.954e-6
0.552, 2.178e-6
0.556, 2.178e-6
0.560, 2.272e-6
0.564, 2.248e-6
0.568, 2.213e-6
0.572, 2.425e-6
0.576, 2.460e-6
0.580, 2.496e-6
0.584, 2.613e-6
0.588, 2.813e-6
0.592, 2.919e-6
0.596, 3.214e-6
0.600, 3.320e-6
0.604, 3.767e-6
0.608, 4.238e-6
0.612, 4.980e-6
0.616, 5.851e-6
0.620, 7.193e-6
0.624, 9.064e-6
0.628, 1.100e-5
0.632, 1.341e-5
0.636, 1.616e-5
0.640, 1.865e-5
0.644, 2.114e-5
0.648, 2.363e-5
0.652, 2.532e-5
0.656, 2.638e-5
0.660, 2.835e-5
0.664, 3.167e-5
0.668, 3.619e-5
0.672, 3.949e-5
0.676, 3.947e-5
0.680, 3.673e-5
0.684, 3.402e-5
0.688, 3.269e-5
0.692, 3.197e-5
0.696, 3.144e-5
0.700, 3.098e-5
0.704, 3.044e-5
0.708, 2.992e-5
0.712, 2.921e-5
0.716, 2.874e-5
0.720, 2.817e-5
0.724, 2.748e-5
0.728, 2.686e-5
0.732, 2.643e-5
0.736, 2.592e-5
0.740, 2.535e-5
0.744, 2.490e-5
0.748, 2.465e-5
0.752, 2.414e-5
0.756, 2.396e-5
0.760, 2.372e-5
0.764, 2.341e-5
0.768, 2.310e-5
0.772, 2.286e-5
0.776, 2.274e-5
0.780, 2.264e-5
0.784, 2.245e-5
0.788, 2.217e-5
0.792, 2.197e-5
0.796, 2.185e-5
0.800, 2.166e-5
0.804, 2.160e-5
0.808, 2.146e-5
0.812, 2.115e-5
0.816, 2.106e-5
0.820, 2.079e-5
0.824, 2.040e-5
0.828, 2.028e-5
0.832, 2.013e-5
0.836, 1.971e-5
0.840, 1.924e-5
0.844, 1.902e-5
0.848, 1.865e-5
0.852, 1.822e-5
0.856, 1.781e-5
0.860, 1.753e-5
0.864, 1.708e-5
0.868, 1.680e-5
0.872, 1.625e-5
0.876, 1.588e-5
0.880, 1.559e-5
0.884, 1.514e-5
0.888, 1.481e-5
0.892, 1.462e-5
0.896, 1.410e-5
0.900, 1.371e-5
0.904, 1.350e-5
0.908, 1.324e-5
0.912, 1.302e-5
0.916, 1.284e-5
0.920, 1.261e-5
0.924, 1.237e-5
0.928, 1.216e-5
0.932, 1.182e-5
0.936, 1.174e-5
0.940, 1.170e-5
0.944, 1.134e-5
0.948, 1.131e-5
0.952, 1.121e-5
0.956, 1.116e-5
0.960, 1.100e-5
0.964, 1.088e-5
0.968, 1.092e-5
0.972, 1.094e-5
0.976, 1.087e-5
0.980, 1.085e-5
0.984, 1.081e-5
0.988, 1.075e-5
0.992, 1.088e-5
0.996, 1.078e-5
1.000, 1.083e-5
