July 14, 2025   11:04:20
Differential Pulse Voltammetry
File: e:\Data Source:  Experiment
Instrument Model:  CHI620E
Header: 
Note: 

Init E (V) = 0
Final E (V) = 1
Incr E (V) = 0.004
Amplitude (V) = 0.05
Pulse Width (sec) = 0.05
Sample Width (sec) = 0.0167
Pulse Period (sec) = 0.5
Quiet Time (sec) = 2
Sensitivity (A/V) = 0.01

Results:

Channel 1:

Potential/V, Current/A

0.004, 9.300e-6
0.008, 8.346e-6
0.012, 7.546e-6
0.016, 7.075e-6
0.020, 6.592e-6
0.024, 6.286e-6
0.028, 6.169e-6
0.032, 5.839e-6
0.036, 5.733e-6
0.040, 5.603e-6
0.044, 5.392e-6
0.048, 5.239e-6
0.052, 5.062e-6
0.056, 4.662e-6
0.060, 4.615e-6
0.064, 4.509e-6
0.068, 4.568e-6
0.072, 4.344e-6
0.076, 4.297e-6
0.080, 4.108e-6
0.084, 3.861e-6
0.088, 3.932e-6
0.092, 3.873e-6
0.096, 3.743e-6
0.100, 3.720e-6
0.104, 3.567e-6
0.108, 3.532e-6
0.112, 3.355e-6
0.116, 3.249e-6
0.120, 3.202e-6
0.124, 3.108e-6
0.128, 2.943e-6
0.132, 2.931e-6
0.136, 2.908e-6
0.140, 2.908e-6
0.144, 2.778e-6
0.148, 2.802e-6
0.152, 2.519e-6
0.156, 2.531e-6
0.160, 2.637e-6
0.164, 2.543e-6
0.168, 2.319e-6
0.172, 2.449e-6
0.176, 2.284e-6
0.180, 2.190e-6
0.184, 2.366e-6
0.188, 2.154e-6
0.192, 2.084e-6
0.196, 1.931e-6
0.200, 1.954e-6
0.204, 1.966e-6
0.208, 1.895e-6
0.212, 1.730e-6
0.216, 1.707e-6
0.220, 1.836e-6
0.224, 1.695e-6
0.228, 1.577e-6
0.232, 1.577e-6
0.236, 1.683e-6
0.240, 1.695e-6
0.244, 1.577e-6
0.248, 1.436e-6
0.252, 1.577e-6
0.256, 1.495e-6
0.260, 1.330e-6
0.264, 1.342e-6
0.268, 1.401e-6
0.272, 1.354e-6
0.276, 1.248e-6
0.280, 1.260e-6
0.284, 1.448e-6
0.288, 1.224e-6
0.292, 1.271e-6
0.296, 1.342e-6
0.300, 1.271e-6
0.304, 1.318e-6
0.308, 1.189e-6
0.312, 1.107e-6
0.316, 1.189e-6
0.320, 1.213e-6
0.324, 1.107e-6
0.328, 1.024e-6
0.332, 1.177e-6
0.336, 1.177e-6
0.340, 1.083e-6
0.344, 1.001e-6
0.348, 1.189e-6
0.352, 1.107e-6
0.356, 1.095e-6
0.360, 1.130e-6
0.364, 1.142e-6
0.368, 1.177e-6
0.372, 1.059e-6
0.376, 1.001e-6
0.380, 1.213e-6
0.384, 1.048e-6
0.388, 9.888e-7
0.392, 1.083e-6
0.396, 1.236e-6
0.400, 1.095e-6
0.404, 1.059e-6
0.408, 1.001e-6
0.412, 1.083e-6
0.416, 1.048e-6
0.420, 1.118e-6
0.424, 8.594e-7
0.428, 1.036e-6
0.432, 9.064e-7
0.436, 8.240e-7
0.440, 9.535e-7
0.444, 9.300e-7
0.448, 8.594e-7
0.452, 9.182e-7
0.456, 8.947e-7
0.460, 1.001e-6
0.464, 1.024e-6
0.468, 9.064e-7
0.472, 9.418e-7
0.476, 8.476e-7
0.480, 8.947e-7
0.484, 8.240e-7
0.488, 8.711e-7
0.492, 9.064e-7
0.496, 7.887e-7
0.500, 9.653e-7
0.504, 8.358e-7
0.508, 8.829e-7
0.512, 8.594e-7
0.516, 7.652e-7
0.520, 7.887e-7
0.524, 7.299e-7
0.528, 7.769e-7
0.532, 8.005e-7
0.536, 7.652e-7
0.540, 8.240e-7
0.544, 7.887e-7
0.548, 8.005e-7
0.552, 8.240e-7
0.556, 8.240e-7
0.560, 7.534e-7
0.564, 7.063e-7
0.568, 5.886e-7
0.572, 8.476e-7
0.576, 8.240e-7
0.580, 7.063e-7
0.584, 8.005e-7
0.588, 8.711e-7
0.592, 7.534e-7
0.596, 7.534e-7
0.600, 8.123e-7
0.604, 7.063e-7
0.608, 9.300e-7
0.612, 5.886e-7
0.616, 7.299e-7
0.620, 7.534e-7
0.624, 7.416e-7
0.628, 7.063e-7
0.632, 6.592e-7
0.636, 8.123e-7
0.640, 9.535e-7
0.644, 8.123e-7
0.648, 7.652e-7
0.652, 7.299e-7
0.656, 8.476e-7
0.660, 8.711e-7
0.664, 9.064e-7
0.668, 8.829e-7
0.672, 1.107e-6
0.676, 1.260e-6
0.680, 1.354e-6
0.684, 1.719e-6
0.688, 2.013e-6
0.692, 2.566e-6
0.696, 2.990e-6
0.700, 3.932e-6
0.704, 5.003e-6
0.708, 6.227e-6
0.712, 7.911e-6
0.716, 1.018e-5
0.720, 1.256e-5
0.724, 1.544e-5
0.728, 1.887e-5
0.732, 2.272e-5
0.736, 2.696e-5
0.740, 3.143e-5
0.744, 3.565e-5
0.748, 3.945e-5
0.752, 4.279e-5
0.756, 4.537e-5
0.760, 4.730e-5
0.764, 4.834e-5
0.768, 4.874e-5
0.772, 4.855e-5
0.776, 4.844e-5
0.780, 4.828e-5
0.784, 4.838e-5
0.788, 4.842e-5
0.792, 4.836e-5
0.796, 4.870e-5
0.800, 4.842e-5
0.804, 4.848e-5
0.808, 4.854e-5
0.812, 4.838e-5
0.816, 4.824e-5
0.820, 4.827e-5
0.824, 4.796e-5
0.828, 4.796e-5
0.832, 4.772e-5
0.836, 4.745e-5
0.840, 4.734e-5
0.844, 4.705e-5
0.848, 4.683e-5
0.852, 4.651e-5
0.856, 4.605e-5
0.860, 4.560e-5
0.864, 4.523e-5
0.868, 4.459e-5
0.872, 4.399e-5
0.876, 4.345e-5
0.880, 4.279e-5
0.884, 4.214e-5
0.888, 4.131e-5
0.892, 4.051e-5
0.896, 3.962e-5
0.900, 3.847e-5
0.904, 3.763e-5
0.908, 3.667e-5
0.912, 3.575e-5
0.916, 3.472e-5
0.920, 3.371e-5
0.924, 3.278e-5
0.928, 3.181e-5
0.932, 3.078e-5
0.936, 2.996e-5
0.940, 2.904e-5
0.944, 2.817e-5
0.948, 2.726e-5
0.952, 2.649e-5
0.956, 2.575e-5
0.960, 2.491e-5
0.964, 2.421e-5
0.968, 2.350e-5
0.972, 2.286e-5
0.976, 2.223e-5
0.980, 2.170e-5
0.984, 2.119e-5
0.988, 2.055e-5
0.992, 2.020e-5
0.996, 1.964e-5
1.000, 1.916e-5
