July 23, 2025   19:14:28
Differential Pulse Voltammetry
File: e:\Data Source:  Experiment
Instrument Model:  CHI620E
Header: 
Note: 

Init E (V) = 0
Final E (V) = 1
Incr E (V) = 0.004
Amplitude (V) = 0.05
Pulse Width (sec) = 0.05
Sample Width (sec) = 0.0167
Pulse Period (sec) = 0.5
Quiet Time (sec) = 2
Sensitivity (A/V) = 0.01

Results:

Channel 1:
Ep = 0.532V
ip = 1.014e-5A
Ap = 1.429e-6VA

Potential/V, Current/A

0.004, 1.201e-5
0.008, 1.089e-5
0.012, 9.983e-6
0.016, 9.276e-6
0.020, 8.605e-6
0.024, 8.205e-6
0.028, 7.899e-6
0.032, 7.416e-6
0.036, 7.299e-6
0.040, 7.063e-6
0.044, 6.828e-6
0.048, 6.675e-6
0.052, 6.404e-6
0.056, 6.169e-6
0.060, 5.945e-6
0.064, 6.110e-6
0.068, 5.756e-6
0.072, 5.580e-6
0.076, 5.662e-6
0.080, 5.262e-6
0.084, 5.344e-6
0.088, 5.109e-6
0.092, 5.085e-6
0.096, 4.862e-6
0.100, 4.768e-6
0.104, 4.626e-6
0.108, 4.603e-6
0.112, 4.662e-6
0.116, 4.485e-6
0.120, 4.414e-6
0.124, 4.414e-6
0.128, 4.367e-6
0.132, 4.144e-6
0.136, 4.085e-6
0.140, 4.108e-6
0.144, 3.955e-6
0.148, 3.885e-6
0.152, 3.944e-6
0.156, 3.944e-6
0.160, 4.026e-6
0.164, 3.920e-6
0.168, 3.826e-6
0.172, 3.696e-6
0.176, 3.826e-6
0.180, 3.720e-6
0.184, 3.614e-6
0.188, 3.779e-6
0.192, 3.626e-6
0.196, 3.508e-6
0.200, 3.626e-6
0.204, 3.661e-6
0.208, 3.579e-6
0.212, 3.449e-6
0.216, 3.473e-6
0.220, 3.485e-6
0.224, 3.473e-6
0.228, 3.461e-6
0.232, 3.402e-6
0.236, 3.367e-6
0.240, 3.355e-6
0.244, 3.461e-6
0.248, 3.284e-6
0.252, 3.308e-6
0.256, 3.390e-6
0.260, 3.202e-6
0.264, 3.226e-6
0.268, 3.308e-6
0.272, 3.261e-6
0.276, 3.284e-6
0.280, 3.273e-6
0.284, 3.190e-6
0.288, 3.249e-6
0.292, 3.084e-6
0.296, 3.237e-6
0.300, 3.237e-6
0.304, 3.214e-6
0.308, 3.226e-6
0.312, 3.049e-6
0.316, 3.037e-6
0.320, 3.037e-6
0.324, 2.943e-6
0.328, 3.155e-6
0.332, 3.131e-6
0.336, 3.167e-6
0.340, 3.049e-6
0.344, 3.049e-6
0.348, 2.990e-6
0.352, 3.096e-6
0.356, 3.084e-6
0.360, 3.108e-6
0.364, 3.178e-6
0.368, 3.190e-6
0.372, 3.084e-6
0.376, 3.096e-6
0.380, 3.226e-6
0.384, 3.167e-6
0.388, 3.072e-6
0.392, 3.273e-6
0.396, 3.237e-6
0.400, 3.155e-6
0.404, 3.284e-6
0.408, 3.320e-6
0.412, 3.414e-6
0.416, 3.426e-6
0.420, 3.673e-6
0.424, 3.661e-6
0.428, 3.838e-6
0.432, 3.932e-6
0.436, 4.026e-6
0.440, 4.167e-6
0.444, 4.520e-6
0.448, 4.768e-6
0.452, 5.003e-6
0.456, 5.191e-6
0.460, 5.698e-6
0.464, 5.910e-6
0.468, 6.463e-6
0.472, 6.922e-6
0.476, 7.487e-6
0.480, 7.934e-6
0.484, 8.558e-6
0.488, 9.217e-6
0.492, 9.853e-6
0.496, 1.051e-5
0.500, 1.123e-5
0.504, 1.181e-5
0.508, 1.251e-5
0.512, 1.304e-5
0.516, 1.343e-5
0.520, 1.386e-5
0.524, 1.419e-5
0.528, 1.443e-5
0.532, 1.450e-5
0.536, 1.431e-5
0.540, 1.447e-5
0.544, 1.420e-5
0.548, 1.390e-5
0.552, 1.371e-5
0.556, 1.348e-5
0.560, 1.322e-5
0.564, 1.281e-5
0.568, 1.248e-5
0.572, 1.235e-5
0.576, 1.197e-5
0.580, 1.169e-5
0.584, 1.125e-5
0.588, 1.118e-5
0.592, 1.069e-5
0.596, 1.063e-5
0.600, 1.028e-5
0.604, 1.011e-5
0.608, 1.011e-5
0.612, 9.794e-6
0.616, 9.535e-6
0.620, 9.453e-6
0.624, 9.335e-6
0.628, 9.076e-6
0.632, 8.900e-6
0.636, 9.017e-6
0.640, 8.747e-6
0.644, 8.546e-6
0.648, 8.523e-6
0.652, 8.488e-6
0.656, 8.323e-6
0.660, 8.287e-6
0.664, 8.193e-6
0.668, 7.981e-6
0.672, 7.981e-6
0.676, 7.746e-6
0.680, 7.887e-6
0.684, 7.793e-6
0.688, 7.616e-6
0.692, 7.640e-6
0.696, 7.357e-6
0.700, 7.428e-6
0.704, 7.275e-6
0.708, 7.122e-6
0.712, 7.157e-6
0.716, 7.146e-6
0.720, 7.051e-6
0.724, 6.922e-6
0.728, 6.910e-6
0.732, 6.781e-6
0.736, 6.851e-6
0.740, 6.745e-6
0.744, 6.486e-6
0.748, 6.557e-6
0.752, 6.498e-6
0.756, 6.392e-6
0.760, 6.357e-6
0.764, 6.369e-6
0.768, 6.404e-6
0.772, 6.157e-6
0.776, 6.333e-6
0.780, 6.204e-6
0.784, 6.239e-6
0.788, 6.169e-6
0.792, 6.086e-6
0.796, 6.192e-6
0.800, 6.074e-6
0.804, 6.086e-6
0.808, 5.945e-6
0.812, 6.086e-6
0.816, 6.004e-6
0.820, 5.886e-6
0.824, 5.827e-6
0.828, 5.910e-6
0.832, 5.851e-6
0.836, 5.768e-6
0.840, 5.662e-6
0.844, 5.874e-6
0.848, 5.733e-6
0.852, 5.756e-6
0.856, 5.615e-6
0.860, 5.874e-6
0.864, 5.886e-6
0.868, 5.698e-6
0.872, 5.780e-6
0.876, 5.851e-6
0.880, 5.815e-6
0.884, 5.804e-6
0.888, 5.709e-6
0.892, 5.968e-6
0.896, 5.815e-6
0.900, 5.839e-6
0.904, 5.898e-6
0.908, 6.074e-6
0.912, 6.004e-6
0.916, 6.015e-6
0.920, 5.945e-6
0.924, 6.004e-6
0.928, 5.874e-6
0.932, 5.992e-6
0.936, 6.051e-6
0.940, 6.004e-6
0.944, 6.015e-6
0.948, 6.039e-6
0.952, 5.933e-6
0.956, 6.039e-6
0.960, 6.086e-6
0.964, 6.192e-6
0.968, 6.039e-6
0.972, 6.145e-6
0.976, 6.121e-6
0.980, 6.274e-6
0.984, 6.251e-6
0.988, 6.416e-6
0.992, 6.274e-6
0.996, 6.475e-6
1.000, 6.475e-6
