July 23, 2025   19:07:58
Differential Pulse Voltammetry
File: e:\Data Source:  Experiment
Instrument Model:  CHI620E
Header: 
Note: 

Init E (V) = 0
Final E (V) = 1
Incr E (V) = 0.004
Amplitude (V) = 0.05
Pulse Width (sec) = 0.05
Sample Width (sec) = 0.0167
Pulse Period (sec) = 0.5
Quiet Time (sec) = 2
Sensitivity (A/V) = 0.01

Results:

Channel 1:
Ep = 0.540V
ip = 1.020e-5A
Ap = 1.455e-6VA

Potential/V, Current/A

0.004, 1.168e-5
0.008, 1.048e-5
0.012, 9.370e-6
0.016, 8.841e-6
0.020, 8.358e-6
0.024, 8.017e-6
0.028, 7.593e-6
0.032, 7.310e-6
0.036, 7.063e-6
0.040, 6.734e-6
0.044, 6.663e-6
0.048, 6.345e-6
0.052, 6.074e-6
0.056, 5.768e-6
0.060, 5.768e-6
0.064, 5.474e-6
0.068, 5.368e-6
0.072, 5.227e-6
0.076, 5.121e-6
0.080, 5.027e-6
0.084, 4.862e-6
0.088, 4.862e-6
0.092, 4.756e-6
0.096, 4.650e-6
0.100, 4.379e-6
0.104, 4.356e-6
0.108, 4.332e-6
0.112, 4.261e-6
0.116, 4.214e-6
0.120, 4.014e-6
0.124, 4.014e-6
0.128, 4.038e-6
0.132, 3.826e-6
0.136, 3.838e-6
0.140, 3.755e-6
0.144, 3.696e-6
0.148, 3.743e-6
0.152, 3.638e-6
0.156, 3.520e-6
0.160, 3.579e-6
0.164, 3.426e-6
0.168, 3.485e-6
0.172, 3.579e-6
0.176, 3.414e-6
0.180, 3.449e-6
0.184, 3.355e-6
0.188, 3.414e-6
0.192, 3.214e-6
0.196, 3.414e-6
0.200, 3.379e-6
0.204, 3.343e-6
0.208, 3.296e-6
0.212, 3.284e-6
0.216, 3.108e-6
0.220, 3.131e-6
0.224, 3.226e-6
0.228, 3.096e-6
0.232, 3.237e-6
0.236, 3.131e-6
0.240, 3.061e-6
0.244, 3.143e-6
0.248, 2.978e-6
0.252, 3.237e-6
0.256, 3.096e-6
0.260, 2.908e-6
0.264, 3.014e-6
0.268, 2.955e-6
0.272, 2.872e-6
0.276, 2.813e-6
0.280, 2.872e-6
0.284, 2.943e-6
0.288, 2.861e-6
0.292, 2.896e-6
0.296, 2.731e-6
0.300, 2.872e-6
0.304, 2.849e-6
0.308, 2.931e-6
0.312, 2.802e-6
0.316, 2.755e-6
0.320, 2.743e-6
0.324, 2.814e-6
0.328, 2.755e-6
0.332, 2.743e-6
0.336, 2.743e-6
0.340, 2.849e-6
0.344, 2.778e-6
0.348, 2.778e-6
0.352, 2.672e-6
0.356, 2.625e-6
0.360, 2.825e-6
0.364, 2.778e-6
0.368, 2.908e-6
0.372, 2.755e-6
0.376, 2.696e-6
0.380, 3.002e-6
0.384, 2.908e-6
0.388, 2.708e-6
0.392, 2.872e-6
0.396, 2.884e-6
0.400, 3.049e-6
0.404, 3.025e-6
0.408, 3.131e-6
0.412, 3.131e-6
0.416, 3.249e-6
0.420, 3.296e-6
0.424, 3.437e-6
0.428, 3.696e-6
0.432, 3.708e-6
0.436, 3.814e-6
0.440, 3.873e-6
0.444, 4.250e-6
0.448, 4.485e-6
0.452, 4.591e-6
0.456, 4.980e-6
0.460, 5.286e-6
0.464, 5.733e-6
0.468, 6.204e-6
0.472, 6.439e-6
0.476, 7.028e-6
0.480, 7.558e-6
0.484, 8.299e-6
0.488, 8.688e-6
0.492, 9.359e-6
0.496, 1.015e-5
0.500, 1.082e-5
0.504, 1.163e-5
0.508, 1.227e-5
0.512, 1.288e-5
0.516, 1.326e-5
0.520, 1.377e-5
0.524, 1.416e-5
0.528, 1.446e-5
0.532, 1.443e-5
0.536, 1.442e-5
0.540, 1.447e-5
0.544, 1.437e-5
0.548, 1.411e-5
0.552, 1.404e-5
0.556, 1.377e-5
0.560, 1.346e-5
0.564, 1.308e-5
0.568, 1.277e-5
0.572, 1.247e-5
0.576, 1.218e-5
0.580, 1.175e-5
0.584, 1.157e-5
0.588, 1.117e-5
0.592, 1.118e-5
0.596, 1.074e-5
0.600, 1.055e-5
0.604, 1.027e-5
0.608, 1.015e-5
0.612, 9.900e-6
0.616, 9.735e-6
0.620, 9.547e-6
0.624, 9.429e-6
0.628, 9.253e-6
0.632, 9.123e-6
0.636, 9.006e-6
0.640, 8.888e-6
0.644, 8.617e-6
0.648, 8.558e-6
0.652, 8.346e-6
0.656, 8.264e-6
0.660, 8.287e-6
0.664, 8.146e-6
0.668, 8.017e-6
0.672, 7.911e-6
0.676, 7.840e-6
0.680, 7.958e-6
0.684, 7.781e-6
0.688, 7.711e-6
0.692, 7.522e-6
0.696, 7.322e-6
0.700, 7.463e-6
0.704, 7.346e-6
0.708, 7.110e-6
0.712, 7.122e-6
0.716, 7.110e-6
0.720, 6.993e-6
0.724, 6.945e-6
0.728, 6.828e-6
0.732, 6.828e-6
0.736, 6.734e-6
0.740, 6.710e-6
0.744, 6.698e-6
0.748, 6.639e-6
0.752, 6.522e-6
0.756, 6.404e-6
0.760, 6.557e-6
0.764, 6.427e-6
0.768, 6.298e-6
0.772, 6.227e-6
0.776, 6.345e-6
0.780, 6.298e-6
0.784, 6.251e-6
0.788, 6.098e-6
0.792, 6.121e-6
0.796, 6.180e-6
0.800, 5.968e-6
0.804, 6.004e-6
0.808, 5.910e-6
0.812, 5.992e-6
0.816, 5.933e-6
0.820, 5.992e-6
0.824, 5.862e-6
0.828, 5.768e-6
0.832, 5.733e-6
0.836, 5.580e-6
0.840, 5.651e-6
0.844, 5.709e-6
0.848, 5.874e-6
0.852, 5.733e-6
0.856, 5.698e-6
0.860, 5.721e-6
0.864, 5.804e-6
0.868, 5.686e-6
0.872, 5.674e-6
0.876, 5.639e-6
0.880, 5.733e-6
0.884, 5.768e-6
0.888, 5.674e-6
0.892, 5.839e-6
0.896, 5.780e-6
0.900, 5.745e-6
0.904, 5.827e-6
0.908, 5.768e-6
0.912, 5.874e-6
0.916, 5.804e-6
0.920, 5.862e-6
0.924, 5.851e-6
0.928, 6.027e-6
0.932, 5.792e-6
0.936, 5.945e-6
0.940, 5.945e-6
0.944, 5.933e-6
0.948, 6.027e-6
0.952, 5.756e-6
0.956, 6.004e-6
0.960, 6.004e-6
0.964, 5.886e-6
0.968, 5.980e-6
0.972, 6.051e-6
0.976, 6.051e-6
0.980, 6.063e-6
0.984, 6.086e-6
0.988, 6.051e-6
0.992, 6.180e-6
0.996, 6.169e-6
1.000, 6.227e-6
