July 23, 2025   19:03:37
Differential Pulse Voltammetry
File: e:\Data Source:  Experiment
Instrument Model:  CHI620E
Header: 
Note: 

Init E (V) = 0
Final E (V) = 1
Incr E (V) = 0.004
Amplitude (V) = 0.05
Pulse Width (sec) = 0.05
Sample Width (sec) = 0.0167
Pulse Period (sec) = 0.5
Quiet Time (sec) = 2
Sensitivity (A/V) = 0.01

Results:

Channel 1:
Ep = 0.540V
ip = 1.115e-5A
Ap = 1.521e-6VA

Potential/V, Current/A

0.004, 1.096e-5
0.008, 9.900e-6
0.012, 9.147e-6
0.016, 8.535e-6
0.020, 7.923e-6
0.024, 7.628e-6
0.028, 7.263e-6
0.032, 6.993e-6
0.036, 6.581e-6
0.040, 6.439e-6
0.044, 6.145e-6
0.048, 5.886e-6
0.052, 5.615e-6
0.056, 5.368e-6
0.060, 5.344e-6
0.064, 5.168e-6
0.068, 4.932e-6
0.072, 4.885e-6
0.076, 4.685e-6
0.080, 4.320e-6
0.084, 4.497e-6
0.088, 4.320e-6
0.092, 4.250e-6
0.096, 4.085e-6
0.100, 4.026e-6
0.104, 4.050e-6
0.108, 3.849e-6
0.112, 3.673e-6
0.116, 3.720e-6
0.120, 3.614e-6
0.124, 3.579e-6
0.128, 3.614e-6
0.132, 3.461e-6
0.136, 3.449e-6
0.140, 3.355e-6
0.144, 3.214e-6
0.148, 3.367e-6
0.152, 3.190e-6
0.156, 3.367e-6
0.160, 3.190e-6
0.164, 3.120e-6
0.168, 3.143e-6
0.172, 3.167e-6
0.176, 3.108e-6
0.180, 2.896e-6
0.184, 2.943e-6
0.188, 3.025e-6
0.192, 2.919e-6
0.196, 2.778e-6
0.200, 3.014e-6
0.204, 2.967e-6
0.208, 2.943e-6
0.212, 2.802e-6
0.216, 2.825e-6
0.220, 2.884e-6
0.224, 2.837e-6
0.228, 2.743e-6
0.232, 2.637e-6
0.236, 2.637e-6
0.240, 2.766e-6
0.244, 2.696e-6
0.248, 2.696e-6
0.252, 2.731e-6
0.256, 2.625e-6
0.260, 2.625e-6
0.264, 2.649e-6
0.268, 2.743e-6
0.272, 2.590e-6
0.276, 2.449e-6
0.280, 2.449e-6
0.284, 2.496e-6
0.288, 2.507e-6
0.292, 2.566e-6
0.296, 2.507e-6
0.300, 2.637e-6
0.304, 2.578e-6
0.308, 2.496e-6
0.312, 2.296e-6
0.316, 2.507e-6
0.320, 2.472e-6
0.324, 2.507e-6
0.328, 2.343e-6
0.332, 2.437e-6
0.336, 2.425e-6
0.340, 2.460e-6
0.344, 2.425e-6
0.348, 2.378e-6
0.352, 2.413e-6
0.356, 2.354e-6
0.360, 2.331e-6
0.364, 2.413e-6
0.368, 2.460e-6
0.372, 2.425e-6
0.376, 2.555e-6
0.380, 2.449e-6
0.384, 2.613e-6
0.388, 2.578e-6
0.392, 2.602e-6
0.396, 2.719e-6
0.400, 2.708e-6
0.404, 2.825e-6
0.408, 2.649e-6
0.412, 2.766e-6
0.416, 2.967e-6
0.420, 2.837e-6
0.424, 2.978e-6
0.428, 3.108e-6
0.432, 3.273e-6
0.436, 3.390e-6
0.440, 3.473e-6
0.444, 3.708e-6
0.448, 3.885e-6
0.452, 3.967e-6
0.456, 4.250e-6
0.460, 4.662e-6
0.464, 4.944e-6
0.468, 5.180e-6
0.472, 5.533e-6
0.476, 5.933e-6
0.480, 6.416e-6
0.484, 6.993e-6
0.488, 7.569e-6
0.492, 8.240e-6
0.496, 8.747e-6
0.500, 9.547e-6
0.504, 1.031e-5
0.508, 1.116e-5
0.512, 1.175e-5
0.516, 1.261e-5
0.520, 1.335e-5
0.524, 1.389e-5
0.528, 1.426e-5
0.532, 1.466e-5
0.536, 1.494e-5
0.540, 1.516e-5
0.544, 1.508e-5
0.548, 1.493e-5
0.552, 1.479e-5
0.556, 1.455e-5
0.560, 1.420e-5
0.564, 1.388e-5
0.568, 1.324e-5
0.572, 1.320e-5
0.576, 1.281e-5
0.580, 1.224e-5
0.584, 1.217e-5
0.588, 1.188e-5
0.592, 1.157e-5
0.596, 1.125e-5
0.600, 1.092e-5
0.604, 1.068e-5
0.608, 1.055e-5
0.612, 1.024e-5
0.616, 1.009e-5
0.620, 9.900e-6
0.624, 9.924e-6
0.628, 9.512e-6
0.632, 9.406e-6
0.636, 9.429e-6
0.640, 9.088e-6
0.644, 8.935e-6
0.648, 8.853e-6
0.652, 8.688e-6
0.656, 8.652e-6
0.660, 8.570e-6
0.664, 8.335e-6
0.668, 8.264e-6
0.672, 8.276e-6
0.676, 8.005e-6
0.680, 7.946e-6
0.684, 7.993e-6
0.688, 7.675e-6
0.692, 7.628e-6
0.696, 7.605e-6
0.700, 7.511e-6
0.704, 7.522e-6
0.708, 7.310e-6
0.712, 7.287e-6
0.716, 7.252e-6
0.720, 7.181e-6
0.724, 7.110e-6
0.728, 6.910e-6
0.732, 7.063e-6
0.736, 6.922e-6
0.740, 6.757e-6
0.744, 6.840e-6
0.748, 6.745e-6
0.752, 6.628e-6
0.756, 6.581e-6
0.760, 6.581e-6
0.764, 6.592e-6
0.768, 6.475e-6
0.772, 6.392e-6
0.776, 6.369e-6
0.780, 6.380e-6
0.784, 6.298e-6
0.788, 6.310e-6
0.792, 6.227e-6
0.796, 6.169e-6
0.800, 6.192e-6
0.804, 6.121e-6
0.808, 6.027e-6
0.812, 5.980e-6
0.816, 5.921e-6
0.820, 5.968e-6
0.824, 5.815e-6
0.828, 5.933e-6
0.832, 5.874e-6
0.836, 5.874e-6
0.840, 5.792e-6
0.844, 5.733e-6
0.848, 5.674e-6
0.852, 5.686e-6
0.856, 5.792e-6
0.860, 5.709e-6
0.864, 5.780e-6
0.868, 5.639e-6
0.872, 5.839e-6
0.876, 5.780e-6
0.880, 5.745e-6
0.884, 5.792e-6
0.888, 5.745e-6
0.892, 5.780e-6
0.896, 5.756e-6
0.900, 5.698e-6
0.904, 5.874e-6
0.908, 5.815e-6
0.912, 5.886e-6
0.916, 5.768e-6
0.920, 5.910e-6
0.924, 5.839e-6
0.928, 5.945e-6
0.932, 5.862e-6
0.936, 5.957e-6
0.940, 5.910e-6
0.944, 5.968e-6
0.948, 5.851e-6
0.952, 5.780e-6
0.956, 5.968e-6
0.960, 5.921e-6
0.964, 5.827e-6
0.968, 5.980e-6
0.972, 5.945e-6
0.976, 6.063e-6
0.980, 6.074e-6
0.984, 6.169e-6
0.988, 6.133e-6
0.992, 6.274e-6
0.996, 6.015e-6
1.000, 6.216e-6
