July 23, 2025   19:12:18
Differential Pulse Voltammetry
File: e:\Data Source:  Experiment
Instrument Model:  CHI620E
Header: 
Note: 

Init E (V) = 0
Final E (V) = 1
Incr E (V) = 0.004
Amplitude (V) = 0.05
Pulse Width (sec) = 0.05
Sample Width (sec) = 0.0167
Pulse Period (sec) = 0.5
Quiet Time (sec) = 2
Sensitivity (A/V) = 0.01

Results:

Channel 1:
Ep = 0.540V
ip = 1.009e-5A
Ap = 1.418e-6VA

Potential/V, Current/A

0.004, 1.185e-5
0.008, 1.071e-5
0.012, 9.947e-6
0.016, 9.241e-6
0.020, 8.605e-6
0.024, 8.123e-6
0.028, 7.864e-6
0.032, 7.522e-6
0.036, 7.098e-6
0.040, 7.016e-6
0.044, 6.804e-6
0.048, 6.545e-6
0.052, 6.274e-6
0.056, 5.980e-6
0.060, 6.004e-6
0.064, 5.815e-6
0.068, 5.698e-6
0.072, 5.533e-6
0.076, 5.486e-6
0.080, 5.368e-6
0.084, 5.144e-6
0.088, 5.097e-6
0.092, 5.027e-6
0.096, 4.827e-6
0.100, 4.768e-6
0.104, 4.697e-6
0.108, 4.626e-6
0.112, 4.473e-6
0.116, 4.403e-6
0.120, 4.391e-6
0.124, 4.414e-6
0.128, 4.391e-6
0.132, 4.097e-6
0.136, 3.885e-6
0.140, 4.132e-6
0.144, 3.920e-6
0.148, 3.908e-6
0.152, 3.838e-6
0.156, 3.814e-6
0.160, 3.873e-6
0.164, 3.979e-6
0.168, 3.732e-6
0.172, 3.861e-6
0.176, 3.755e-6
0.180, 3.720e-6
0.184, 3.685e-6
0.188, 3.696e-6
0.192, 3.508e-6
0.196, 3.567e-6
0.200, 3.473e-6
0.204, 3.567e-6
0.208, 3.590e-6
0.212, 3.296e-6
0.216, 3.343e-6
0.220, 3.390e-6
0.224, 3.414e-6
0.228, 3.485e-6
0.232, 3.296e-6
0.236, 3.331e-6
0.240, 3.355e-6
0.244, 3.437e-6
0.248, 3.273e-6
0.252, 3.214e-6
0.256, 3.214e-6
0.260, 3.155e-6
0.264, 3.249e-6
0.268, 3.237e-6
0.272, 3.226e-6
0.276, 3.167e-6
0.280, 3.202e-6
0.284, 3.202e-6
0.288, 3.108e-6
0.292, 3.096e-6
0.296, 3.120e-6
0.300, 3.120e-6
0.304, 3.002e-6
0.308, 3.190e-6
0.312, 3.025e-6
0.316, 3.037e-6
0.320, 3.025e-6
0.324, 2.884e-6
0.328, 3.049e-6
0.332, 3.131e-6
0.336, 2.872e-6
0.340, 3.002e-6
0.344, 2.825e-6
0.348, 3.002e-6
0.352, 2.943e-6
0.356, 2.849e-6
0.360, 2.919e-6
0.364, 3.072e-6
0.368, 3.014e-6
0.372, 3.084e-6
0.376, 2.978e-6
0.380, 3.049e-6
0.384, 3.014e-6
0.388, 3.096e-6
0.392, 3.120e-6
0.396, 3.167e-6
0.400, 3.237e-6
0.404, 3.202e-6
0.408, 3.308e-6
0.412, 3.296e-6
0.416, 3.532e-6
0.420, 3.614e-6
0.424, 3.590e-6
0.428, 3.732e-6
0.432, 3.873e-6
0.436, 4.179e-6
0.440, 4.285e-6
0.444, 4.414e-6
0.448, 4.697e-6
0.452, 4.956e-6
0.456, 5.227e-6
0.460, 5.498e-6
0.464, 5.945e-6
0.468, 6.322e-6
0.472, 6.710e-6
0.476, 7.369e-6
0.480, 7.946e-6
0.484, 8.323e-6
0.488, 9.064e-6
0.492, 9.841e-6
0.496, 1.043e-5
0.500, 1.112e-5
0.504, 1.185e-5
0.508, 1.250e-5
0.512, 1.308e-5
0.516, 1.342e-5
0.520, 1.395e-5
0.524, 1.415e-5
0.528, 1.435e-5
0.532, 1.449e-5
0.536, 1.442e-5
0.540, 1.453e-5
0.544, 1.433e-5
0.548, 1.407e-5
0.552, 1.374e-5
0.556, 1.363e-5
0.560, 1.324e-5
0.564, 1.290e-5
0.568, 1.254e-5
0.572, 1.238e-5
0.576, 1.207e-5
0.580, 1.161e-5
0.584, 1.136e-5
0.588, 1.110e-5
0.592, 1.095e-5
0.596, 1.058e-5
0.600, 1.044e-5
0.604, 1.032e-5
0.608, 9.947e-6
0.612, 9.865e-6
0.616, 9.606e-6
0.620, 9.500e-6
0.624, 9.323e-6
0.628, 9.241e-6
0.632, 9.064e-6
0.636, 8.864e-6
0.640, 8.782e-6
0.644, 8.629e-6
0.648, 8.511e-6
0.652, 8.511e-6
0.656, 8.488e-6
0.660, 8.287e-6
0.664, 7.970e-6
0.668, 8.005e-6
0.672, 8.076e-6
0.676, 7.781e-6
0.680, 7.675e-6
0.684, 7.664e-6
0.688, 7.640e-6
0.692, 7.546e-6
0.696, 7.381e-6
0.700, 7.393e-6
0.704, 7.228e-6
0.708, 7.228e-6
0.712, 7.193e-6
0.716, 7.099e-6
0.720, 7.110e-6
0.724, 6.981e-6
0.728, 6.934e-6
0.732, 6.887e-6
0.736, 6.745e-6
0.740, 6.757e-6
0.744, 6.651e-6
0.748, 6.581e-6
0.752, 6.581e-6
0.756, 6.380e-6
0.760, 6.404e-6
0.764, 6.345e-6
0.768, 6.345e-6
0.772, 6.274e-6
0.776, 6.475e-6
0.780, 6.345e-6
0.784, 6.204e-6
0.788, 6.216e-6
0.792, 6.133e-6
0.796, 6.192e-6
0.800, 6.110e-6
0.804, 6.051e-6
0.808, 6.027e-6
0.812, 5.968e-6
0.816, 5.968e-6
0.820, 5.910e-6
0.824, 5.804e-6
0.828, 5.886e-6
0.832, 5.827e-6
0.836, 5.674e-6
0.840, 5.815e-6
0.844, 5.780e-6
0.848, 5.721e-6
0.852, 5.768e-6
0.856, 5.662e-6
0.860, 5.745e-6
0.864, 5.745e-6
0.868, 5.768e-6
0.872, 5.674e-6
0.876, 5.874e-6
0.880, 5.874e-6
0.884, 5.733e-6
0.888, 5.686e-6
0.892, 5.804e-6
0.896, 5.898e-6
0.900, 5.768e-6
0.904, 5.792e-6
0.908, 5.827e-6
0.912, 5.910e-6
0.916, 5.851e-6
0.920, 5.862e-6
0.924, 5.968e-6
0.928, 5.957e-6
0.932, 5.815e-6
0.936, 6.027e-6
0.940, 5.862e-6
0.944, 5.992e-6
0.948, 6.051e-6
0.952, 5.957e-6
0.956, 6.051e-6
0.960, 6.098e-6
0.964, 6.004e-6
0.968, 6.074e-6
0.972, 6.157e-6
0.976, 6.086e-6
0.980, 6.239e-6
0.984, 6.133e-6
0.988, 6.251e-6
0.992, 6.345e-6
0.996, 6.333e-6
1.000, 6.439e-6
