July 23, 2025   19:16:38
Differential Pulse Voltammetry
File: e:\Data Source:  Experiment
Instrument Model:  CHI620E
Header: 
Note: 

Init E (V) = 0
Final E (V) = 1
Incr E (V) = 0.004
Amplitude (V) = 0.05
Pulse Width (sec) = 0.05
Sample Width (sec) = 0.0167
Pulse Period (sec) = 0.5
Quiet Time (sec) = 2
Sensitivity (A/V) = 0.01

Results:

Channel 1:
Ep = 0.536V
ip = 9.748e-6A
Ap = 1.348e-6VA

Potential/V, Current/A

0.004, 1.229e-5
0.008, 1.114e-5
0.012, 1.023e-5
0.016, 9.524e-6
0.020, 8.688e-6
0.024, 8.452e-6
0.028, 8.028e-6
0.032, 7.569e-6
0.036, 7.357e-6
0.040, 7.087e-6
0.044, 6.969e-6
0.048, 6.686e-6
0.052, 6.557e-6
0.056, 6.298e-6
0.060, 6.216e-6
0.064, 6.110e-6
0.068, 5.827e-6
0.072, 5.615e-6
0.076, 5.568e-6
0.080, 5.450e-6
0.084, 5.344e-6
0.088, 5.215e-6
0.092, 5.321e-6
0.096, 4.932e-6
0.100, 4.944e-6
0.104, 4.827e-6
0.108, 4.862e-6
0.112, 4.650e-6
0.116, 4.815e-6
0.120, 4.426e-6
0.124, 4.485e-6
0.128, 4.485e-6
0.132, 4.156e-6
0.136, 4.156e-6
0.140, 4.203e-6
0.144, 4.261e-6
0.148, 4.191e-6
0.152, 4.120e-6
0.156, 4.191e-6
0.160, 3.979e-6
0.164, 3.955e-6
0.168, 3.955e-6
0.172, 3.979e-6
0.176, 3.826e-6
0.180, 3.932e-6
0.184, 3.802e-6
0.188, 3.897e-6
0.192, 3.791e-6
0.196, 3.602e-6
0.200, 3.802e-6
0.204, 3.732e-6
0.208, 3.696e-6
0.212, 3.649e-6
0.216, 3.543e-6
0.220, 3.732e-6
0.224, 3.567e-6
0.228, 3.579e-6
0.232, 3.496e-6
0.236, 3.590e-6
0.240, 3.496e-6
0.244, 3.543e-6
0.248, 3.473e-6
0.252, 3.590e-6
0.256, 3.567e-6
0.260, 3.355e-6
0.264, 3.355e-6
0.268, 3.485e-6
0.272, 3.402e-6
0.276, 3.402e-6
0.280, 3.426e-6
0.284, 3.367e-6
0.288, 3.402e-6
0.292, 3.355e-6
0.296, 3.308e-6
0.300, 3.437e-6
0.304, 3.296e-6
0.308, 3.273e-6
0.312, 3.143e-6
0.316, 3.296e-6
0.320, 3.308e-6
0.324, 3.096e-6
0.328, 3.096e-6
0.332, 3.237e-6
0.336, 3.155e-6
0.340, 3.273e-6
0.344, 3.108e-6
0.348, 3.178e-6
0.352, 3.155e-6
0.356, 3.084e-6
0.360, 3.084e-6
0.364, 3.284e-6
0.368, 3.190e-6
0.372, 3.249e-6
0.376, 3.061e-6
0.380, 3.237e-6
0.384, 3.155e-6
0.388, 3.284e-6
0.392, 3.202e-6
0.396, 3.379e-6
0.400, 3.343e-6
0.404, 3.437e-6
0.408, 3.485e-6
0.412, 3.496e-6
0.416, 3.614e-6
0.420, 3.638e-6
0.424, 3.873e-6
0.428, 3.932e-6
0.432, 4.038e-6
0.436, 4.214e-6
0.440, 4.450e-6
0.444, 4.709e-6
0.448, 4.885e-6
0.452, 5.038e-6
0.456, 5.427e-6
0.460, 5.910e-6
0.464, 6.216e-6
0.468, 6.533e-6
0.472, 6.910e-6
0.476, 7.440e-6
0.480, 8.205e-6
0.484, 8.582e-6
0.488, 9.300e-6
0.492, 9.994e-6
0.496, 1.069e-5
0.500, 1.140e-5
0.504, 1.194e-5
0.508, 1.264e-5
0.512, 1.311e-5
0.516, 1.347e-5
0.520, 1.389e-5
0.524, 1.410e-5
0.528, 1.437e-5
0.532, 1.437e-5
0.536, 1.439e-5
0.540, 1.433e-5
0.544, 1.422e-5
0.548, 1.401e-5
0.552, 1.366e-5
0.556, 1.335e-5
0.560, 1.311e-5
0.564, 1.278e-5
0.568, 1.240e-5
0.572, 1.220e-5
0.576, 1.197e-5
0.580, 1.156e-5
0.584, 1.144e-5
0.588, 1.103e-5
0.592, 1.097e-5
0.596, 1.052e-5
0.600, 1.036e-5
0.604, 1.021e-5
0.608, 1.012e-5
0.612, 9.688e-6
0.616, 9.629e-6
0.620, 9.406e-6
0.624, 9.441e-6
0.628, 9.217e-6
0.632, 9.135e-6
0.636, 9.017e-6
0.640, 8.782e-6
0.644, 8.582e-6
0.648, 8.688e-6
0.652, 8.429e-6
0.656, 8.452e-6
0.660, 8.276e-6
0.664, 8.134e-6
0.668, 8.076e-6
0.672, 8.040e-6
0.676, 7.864e-6
0.680, 7.746e-6
0.684, 7.793e-6
0.688, 7.616e-6
0.692, 7.416e-6
0.696, 7.487e-6
0.700, 7.252e-6
0.704, 7.299e-6
0.708, 7.157e-6
0.712, 7.204e-6
0.716, 7.287e-6
0.720, 7.063e-6
0.724, 6.981e-6
0.728, 6.781e-6
0.732, 6.828e-6
0.736, 6.745e-6
0.740, 6.651e-6
0.744, 6.722e-6
0.748, 6.675e-6
0.752, 6.628e-6
0.756, 6.510e-6
0.760, 6.392e-6
0.764, 6.475e-6
0.768, 6.486e-6
0.772, 6.227e-6
0.776, 6.369e-6
0.780, 6.392e-6
0.784, 6.192e-6
0.788, 6.098e-6
0.792, 6.145e-6
0.796, 6.051e-6
0.800, 6.133e-6
0.804, 6.027e-6
0.808, 6.086e-6
0.812, 5.910e-6
0.816, 6.004e-6
0.820, 5.910e-6
0.824, 5.721e-6
0.828, 5.862e-6
0.832, 5.910e-6
0.836, 5.792e-6
0.840, 5.804e-6
0.844, 5.898e-6
0.848, 5.698e-6
0.852, 5.804e-6
0.856, 5.733e-6
0.860, 5.804e-6
0.864, 5.815e-6
0.868, 5.804e-6
0.872, 5.792e-6
0.876, 5.874e-6
0.880, 5.957e-6
0.884, 5.886e-6
0.888, 5.780e-6
0.892, 5.898e-6
0.896, 5.827e-6
0.900, 5.898e-6
0.904, 5.886e-6
0.908, 5.945e-6
0.912, 6.074e-6
0.916, 5.992e-6
0.920, 6.004e-6
0.924, 6.027e-6
0.928, 5.933e-6
0.932, 6.051e-6
0.936, 6.039e-6
0.940, 6.063e-6
0.944, 5.945e-6
0.948, 6.169e-6
0.952, 6.121e-6
0.956, 6.121e-6
0.960, 6.063e-6
0.964, 6.204e-6
0.968, 6.074e-6
0.972, 6.274e-6
0.976, 6.274e-6
0.980, 6.322e-6
0.984, 6.322e-6
0.988, 6.333e-6
0.992, 6.404e-6
0.996, 6.392e-6
1.000, 6.639e-6
