July 15, 2025   14:35:28
Differential Pulse Voltammetry
File: e:\Data Source:  Experiment
Instrument Model:  CHI620E
Header: 
Note: 

Init E (V) = 0
Final E (V) = 1
Incr E (V) = 0.004
Amplitude (V) = 0.05
Pulse Width (sec) = 0.05
Sample Width (sec) = 0.0167
Pulse Period (sec) = 0.5
Quiet Time (sec) = 2
Sensitivity (A/V) = 0.01

Results:

Channel 1:
Ep = 0.600V
ip = 2.251e-5A
Ap = 8.176e-7VA

Potential/V, Current/A

0.004, 1.856e-5
0.008, 1.778e-5
0.012, 1.687e-5
0.016, 1.559e-5
0.020, 1.440e-5
0.024, 1.349e-5
0.028, 1.267e-5
0.032, 1.229e-5
0.036, 1.188e-5
0.040, 1.152e-5
0.044, 1.137e-5
0.048, 1.127e-5
0.052, 1.101e-5
0.056, 1.072e-5
0.060, 1.075e-5
0.064, 1.057e-5
0.068, 1.032e-5
0.072, 1.034e-5
0.076, 1.007e-5
0.080, 9.936e-6
0.084, 9.841e-6
0.088, 9.712e-6
0.092, 9.665e-6
0.096, 9.394e-6
0.100, 9.265e-6
0.104, 9.053e-6
0.108, 8.864e-6
0.112, 8.711e-6
0.116, 8.488e-6
0.120, 8.452e-6
0.124, 8.335e-6
0.128, 8.064e-6
0.132, 7.852e-6
0.136, 7.581e-6
0.140, 7.605e-6
0.144, 7.463e-6
0.148, 7.287e-6
0.152, 7.310e-6
0.156, 7.240e-6
0.160, 7.110e-6
0.164, 6.816e-6
0.168, 6.816e-6
0.172, 6.828e-6
0.176, 6.604e-6
0.180, 6.392e-6
0.184, 6.404e-6
0.188, 6.451e-6
0.192, 6.227e-6
0.196, 5.945e-6
0.200, 6.086e-6
0.204, 6.051e-6
0.208, 5.733e-6
0.212, 5.792e-6
0.216, 5.545e-6
0.220, 5.615e-6
0.224, 5.521e-6
0.228, 5.392e-6
0.232, 5.309e-6
0.236, 5.297e-6
0.240, 5.344e-6
0.244, 5.168e-6
0.248, 5.074e-6
0.252, 4.897e-6
0.256, 4.980e-6
0.260, 4.838e-6
0.264, 5.097e-6
0.268, 5.015e-6
0.272, 4.874e-6
0.276, 4.685e-6
0.280, 4.850e-6
0.284, 4.815e-6
0.288, 4.603e-6
0.292, 4.709e-6
0.296, 4.673e-6
0.300, 4.650e-6
0.304, 4.568e-6
0.308, 4.615e-6
0.312, 4.273e-6
0.316, 4.544e-6
0.320, 4.426e-6
0.324, 4.391e-6
0.328, 4.273e-6
0.332, 4.426e-6
0.336, 4.344e-6
0.340, 4.250e-6
0.344, 4.132e-6
0.348, 4.191e-6
0.352, 4.261e-6
0.356, 4.097e-6
0.360, 4.156e-6
0.364, 4.085e-6
0.368, 4.203e-6
0.372, 4.085e-6
0.376, 4.050e-6
0.380, 4.026e-6
0.384, 4.014e-6
0.388, 4.061e-6
0.392, 3.955e-6
0.396, 4.097e-6
0.400, 4.061e-6
0.404, 3.920e-6
0.408, 3.814e-6
0.412, 3.873e-6
0.416, 3.791e-6
0.420, 3.838e-6
0.424, 3.873e-6
0.428, 3.767e-6
0.432, 3.908e-6
0.436, 3.708e-6
0.440, 3.802e-6
0.444, 3.955e-6
0.448, 3.720e-6
0.452, 3.743e-6
0.456, 3.791e-6
0.460, 3.849e-6
0.464, 3.920e-6
0.468, 4.014e-6
0.472, 3.944e-6
0.476, 3.991e-6
0.480, 4.144e-6
0.484, 4.203e-6
0.488, 4.214e-6
0.492, 4.403e-6
0.496, 4.414e-6
0.500, 4.544e-6
0.504, 4.615e-6
0.508, 4.862e-6
0.512, 5.168e-6
0.516, 5.344e-6
0.520, 5.698e-6
0.524, 6.145e-6
0.528, 6.698e-6
0.532, 7.287e-6
0.536, 8.040e-6
0.540, 8.864e-6
0.544, 1.002e-5
0.548, 1.140e-5
0.552, 1.300e-5
0.556, 1.516e-5
0.560, 1.756e-5
0.564, 2.073e-5
0.568, 2.421e-5
0.572, 2.878e-5
0.576, 3.415e-5
0.580, 4.013e-5
0.584, 4.650e-5
0.588, 5.302e-5
0.592, 5.848e-5
0.596, 6.266e-5
0.600, 6.471e-5
0.604, 6.471e-5
0.608, 6.331e-5
0.612, 6.150e-5
0.616, 5.959e-5
0.620, 5.828e-5
0.624, 5.705e-5
0.628, 5.618e-5
0.632, 5.594e-5
0.636, 5.547e-5
0.640, 5.582e-5
0.644, 5.574e-5
0.648, 5.602e-5
0.652, 5.659e-5
0.656, 5.748e-5
0.660, 5.773e-5
0.664, 5.840e-5
0.668, 5.910e-5
0.672, 5.973e-5
0.676, 6.021e-5
0.680, 6.079e-5
0.684, 6.131e-5
0.688, 6.201e-5
0.692, 6.252e-5
0.696, 6.294e-5
0.700, 6.357e-5
0.704, 6.400e-5
0.708, 6.456e-5
0.712, 6.518e-5
0.716, 6.564e-5
0.720, 6.641e-5
0.724, 6.670e-5
0.728, 6.729e-5
0.732, 6.738e-5
0.736, 6.776e-5
0.740, 6.782e-5
0.744, 6.784e-5
0.748, 6.782e-5
0.752, 6.771e-5
0.756, 6.741e-5
0.760, 6.711e-5
0.764, 6.666e-5
0.768, 6.623e-5
0.772, 6.539e-5
0.776, 6.468e-5
0.780, 6.380e-5
0.784, 6.290e-5
0.788, 6.181e-5
0.792, 6.026e-5
0.796, 5.902e-5
0.800, 5.840e-5
0.804, 5.580e-5
0.808, 5.407e-5
0.812, 5.220e-5
0.816, 5.035e-5
0.820, 4.804e-5
0.824, 4.604e-5
0.828, 4.420e-5
0.832, 4.217e-5
0.836, 4.038e-5
0.840, 3.836e-5
0.844, 3.654e-5
0.848, 3.520e-5
0.852, 3.334e-5
0.856, 3.188e-5
0.860, 3.055e-5
0.864, 2.908e-5
0.868, 2.795e-5
0.872, 2.692e-5
0.876, 2.545e-5
0.880, 2.443e-5
0.884, 2.349e-5
0.888, 2.240e-5
0.892, 2.174e-5
0.896, 2.091e-5
0.900, 2.037e-5
0.904, 1.975e-5
0.908, 1.924e-5
0.912, 1.858e-5
0.916, 1.815e-5
0.920, 1.782e-5
0.924, 1.729e-5
0.928, 1.716e-5
0.932, 1.661e-5
0.936, 1.652e-5
0.940, 1.610e-5
0.944, 1.596e-5
0.948, 1.576e-5
0.952, 1.526e-5
0.956, 1.520e-5
0.960, 1.508e-5
0.964, 1.487e-5
0.968, 1.475e-5
0.972, 1.454e-5
0.976, 1.440e-5
0.980, 1.459e-5
0.984, 1.437e-5
0.988, 1.449e-5
0.992, 1.439e-5
0.996, 1.424e-5
1.000, 1.410e-5
