July 14, 2025   17:06:37
Differential Pulse Voltammetry
File: e:\Data Source:  Experiment
Instrument Model:  CHI620E
Header: 
Note: 

Init E (V) = 0
Final E (V) = 1
Incr E (V) = 0.004
Amplitude (V) = 0.05
Pulse Width (sec) = 0.05
Sample Width (sec) = 0.0167
Pulse Period (sec) = 0.5
Quiet Time (sec) = 2
Sensitivity (A/V) = 0.01

Results:

Channel 1:
Ep = 0.712V
ip = 2.571e-5A
Ap = 1.167e-6VA

Potential/V, Current/A

0.004, 1.187e-5
0.008, 1.118e-5
0.012, 1.037e-5
0.016, 1.017e-5
0.020, 9.971e-6
0.024, 9.747e-6
0.028, 9.406e-6
0.032, 8.829e-6
0.036, 8.488e-6
0.040, 8.146e-6
0.044, 7.899e-6
0.048, 7.711e-6
0.052, 7.440e-6
0.056, 7.322e-6
0.060, 7.228e-6
0.064, 7.299e-6
0.068, 7.098e-6
0.072, 7.051e-6
0.076, 7.134e-6
0.080, 6.934e-6
0.084, 7.193e-6
0.088, 7.063e-6
0.092, 7.040e-6
0.096, 7.240e-6
0.100, 7.263e-6
0.104, 7.252e-6
0.108, 7.299e-6
0.112, 7.581e-6
0.116, 7.452e-6
0.120, 7.511e-6
0.124, 7.711e-6
0.128, 7.722e-6
0.132, 7.758e-6
0.136, 7.828e-6
0.140, 7.875e-6
0.144, 8.017e-6
0.148, 7.981e-6
0.152, 8.005e-6
0.156, 8.111e-6
0.160, 8.052e-6
0.164, 8.076e-6
0.168, 8.158e-6
0.172, 8.111e-6
0.176, 8.052e-6
0.180, 8.240e-6
0.184, 8.052e-6
0.188, 8.111e-6
0.192, 8.123e-6
0.196, 7.911e-6
0.200, 7.911e-6
0.204, 7.946e-6
0.208, 7.970e-6
0.212, 7.664e-6
0.216, 7.675e-6
0.220, 7.675e-6
0.224, 7.522e-6
0.228, 7.522e-6
0.232, 7.405e-6
0.236, 7.240e-6
0.240, 7.216e-6
0.244, 7.075e-6
0.248, 6.945e-6
0.252, 6.910e-6
0.256, 7.004e-6
0.260, 6.781e-6
0.264, 6.734e-6
0.268, 6.628e-6
0.272, 6.639e-6
0.276, 6.522e-6
0.280, 6.427e-6
0.284, 6.404e-6
0.288, 6.404e-6
0.292, 6.263e-6
0.296, 6.133e-6
0.300, 6.086e-6
0.304, 6.157e-6
0.308, 5.992e-6
0.312, 5.968e-6
0.316, 5.910e-6
0.320, 5.933e-6
0.324, 5.745e-6
0.328, 5.780e-6
0.332, 5.674e-6
0.336, 5.733e-6
0.340, 5.533e-6
0.344, 5.545e-6
0.348, 5.415e-6
0.352, 5.403e-6
0.356, 5.297e-6
0.360, 5.356e-6
0.364, 5.392e-6
0.368, 5.403e-6
0.372, 5.215e-6
0.376, 5.191e-6
0.380, 5.239e-6
0.384, 5.097e-6
0.388, 4.909e-6
0.392, 5.191e-6
0.396, 5.062e-6
0.400, 5.203e-6
0.404, 4.932e-6
0.408, 4.968e-6
0.412, 4.980e-6
0.416, 4.838e-6
0.420, 4.779e-6
0.424, 4.768e-6
0.428, 4.803e-6
0.432, 4.744e-6
0.436, 4.709e-6
0.440, 4.568e-6
0.444, 4.744e-6
0.448, 4.615e-6
0.452, 4.544e-6
0.456, 4.568e-6
0.460, 4.685e-6
0.464, 4.685e-6
0.468, 4.626e-6
0.472, 4.473e-6
0.476, 4.603e-6
0.480, 4.544e-6
0.484, 4.438e-6
0.488, 4.520e-6
0.492, 4.520e-6
0.496, 4.473e-6
0.500, 4.391e-6
0.504, 4.450e-6
0.508, 4.426e-6
0.512, 4.403e-6
0.516, 4.226e-6
0.520, 4.532e-6
0.524, 4.309e-6
0.528, 4.238e-6
0.532, 4.261e-6
0.536, 4.250e-6
0.540, 4.344e-6
0.544, 4.214e-6
0.548, 4.297e-6
0.552, 4.261e-6
0.556, 4.179e-6
0.560, 4.250e-6
0.564, 4.367e-6
0.568, 4.179e-6
0.572, 4.450e-6
0.576, 4.497e-6
0.580, 4.485e-6
0.584, 4.662e-6
0.588, 4.768e-6
0.592, 4.827e-6
0.596, 4.932e-6
0.600, 5.085e-6
0.604, 5.274e-6
0.608, 5.733e-6
0.612, 6.039e-6
0.616, 6.380e-6
0.620, 6.887e-6
0.624, 7.487e-6
0.628, 8.276e-6
0.632, 9.053e-6
0.636, 1.037e-5
0.640, 1.150e-5
0.644, 1.301e-5
0.648, 1.517e-5
0.652, 1.783e-5
0.656, 2.084e-5
0.660, 2.459e-5
0.664, 2.959e-5
0.668, 3.568e-5
0.672, 4.289e-5
0.676, 5.130e-5
0.680, 6.087e-5
0.684, 7.147e-5
0.688, 8.216e-5
0.692, 9.107e-5
0.696, 9.773e-5
0.700, 1.025e-4
0.704, 1.052e-4
0.708, 1.066e-4
0.712, 1.069e-4
0.716, 1.069e-4
0.720, 1.067e-4
0.724, 1.063e-4
0.728, 1.056e-4
0.732, 1.047e-4
0.736, 1.038e-4
0.740, 1.031e-4
0.744, 1.023e-4
0.748, 1.021e-4
0.752, 1.022e-4
0.756, 1.029e-4
0.760, 1.039e-4
0.764, 1.058e-4
0.768, 1.078e-4
0.772, 1.100e-4
0.776, 1.128e-4
0.780, 1.155e-4
0.784, 1.186e-4
0.788, 1.213e-4
0.792, 1.242e-4
0.796, 1.270e-4
0.800, 1.294e-4
0.804, 1.316e-4
0.808, 1.333e-4
0.812, 1.348e-4
0.816, 1.356e-4
0.820, 1.363e-4
0.824, 1.363e-4
0.828, 1.361e-4
0.832, 1.359e-4
0.836, 1.351e-4
0.840, 1.341e-4
0.844, 1.330e-4
0.848, 1.313e-4
0.852, 1.295e-4
0.856, 1.277e-4
0.860, 1.254e-4
0.864, 1.231e-4
0.868, 1.202e-4
0.872, 1.176e-4
0.876, 1.150e-4
0.880, 1.121e-4
0.884, 1.094e-4
0.888, 1.065e-4
0.892, 1.038e-4
0.896, 1.013e-4
0.900, 9.832e-5
0.904, 9.547e-5
0.908, 9.273e-5
0.912, 8.988e-5
0.916, 8.694e-5
0.920, 8.392e-5
0.924, 8.080e-5
0.928, 7.765e-5
0.932, 7.439e-5
0.936, 7.117e-5
0.940, 6.788e-5
0.944, 6.478e-5
0.948, 6.165e-5
0.952, 5.847e-5
0.956, 5.569e-5
0.960, 5.273e-5
0.964, 5.000e-5
0.968, 4.736e-5
0.972, 4.510e-5
0.976, 4.279e-5
0.980, 4.058e-5
0.984, 3.845e-5
0.988, 3.655e-5
0.992, 3.493e-5
0.996, 3.317e-5
1.000, 3.171e-5
