July 25, 2025   08:08:53
Differential Pulse Voltammetry
File: e:\Data Source:  Experiment
Instrument Model:  CHI620E
Header: 
Note: 

Init E (V) = 0
Final E (V) = 1
Incr E (V) = 0.004
Amplitude (V) = 0.05
Pulse Width (sec) = 0.05
Sample Width (sec) = 0.0167
Pulse Period (sec) = 0.5
Quiet Time (sec) = 2
Sensitivity (A/V) = 0.01

Results:

Channel 1:
Ep = 0.796V
ip = 4.779e-6A
Ap = 5.935e-7VA

Potential/V, Current/A

0.004, 3.885e-7
0.008, 4.473e-7
0.012, 5.062e-7
0.016, 5.415e-7
0.020, 4.827e-7
0.024, 4.473e-7
0.028, 4.356e-7
0.032, 5.651e-7
0.036, 4.002e-7
0.040, 4.120e-7
0.044, 5.180e-7
0.048, 5.062e-7
0.052, 3.532e-7
0.056, 3.178e-7
0.060, 5.415e-7
0.064, 4.238e-7
0.068, 2.943e-7
0.072, 4.238e-7
0.076, 3.649e-7
0.080, 4.120e-7
0.084, 2.237e-7
0.088, 4.002e-7
0.092, 4.827e-7
0.096, 4.120e-7
0.100, 4.944e-7
0.104, 3.885e-7
0.108, 3.532e-7
0.112, 2.708e-7
0.116, 3.061e-7
0.120, 2.825e-7
0.124, 4.002e-7
0.128, 2.943e-7
0.132, 2.354e-7
0.136, 3.649e-7
0.140, 3.061e-7
0.144, 3.767e-7
0.148, 2.943e-7
0.152, 2.237e-7
0.156, 2.001e-7
0.160, 2.354e-7
0.164, 1.766e-7
0.168, 4.002e-7
0.172, 2.472e-7
0.176, 2.590e-7
0.180, 3.649e-7
0.184, 2.119e-7
0.188, 2.472e-7
0.192, 3.649e-7
0.196, 1.413e-7
0.200, 4.238e-7
0.204, 2.943e-7
0.208, 3.767e-7
0.212, 2.590e-7
0.216, 1.648e-7
0.220, 2.943e-7
0.224, 3.414e-7
0.228, 2.943e-7
0.232, 2.943e-7
0.236, 2.354e-7
0.240, 2.943e-7
0.244, 2.472e-7
0.248, 2.237e-7
0.252, 3.061e-7
0.256, 2.237e-7
0.260, 1.177e-7
0.264, 1.884e-7
0.268, 3.178e-7
0.272, 2.825e-7
0.276, 2.472e-7
0.280, 2.237e-7
0.284, 2.354e-7
0.288, 1.530e-7
0.292, 2.001e-7
0.296, 1.530e-7
0.300, 2.237e-7
0.304, 1.884e-7
0.308, 3.414e-7
0.312, 3.061e-7
0.316, 3.649e-7
0.320, 3.061e-7
0.324, 1.530e-7
0.328, 2.825e-7
0.332, 3.414e-7
0.336, 4.238e-7
0.340, 2.708e-7
0.344, 1.766e-7
0.348, 2.708e-7
0.352, 4.356e-7
0.356, 1.884e-7
0.360, 3.296e-7
0.364, 3.885e-7
0.368, 3.178e-7
0.372, 2.590e-7
0.376, 3.885e-7
0.380, 4.709e-7
0.384, 2.943e-7
0.388, 2.354e-7
0.392, 4.120e-7
0.396, 3.649e-7
0.400, 4.827e-7
0.404, 4.709e-7
0.408, 4.120e-7
0.412, 3.532e-7
0.416, 3.532e-7
0.420, 3.649e-7
0.424, 2.119e-7
0.428, 3.532e-7
0.432, 3.178e-7
0.436, 2.237e-7
0.440, 1.884e-7
0.444, 3.649e-7
0.448, 4.473e-7
0.452, 2.825e-7
0.456, 3.178e-7
0.460, 3.649e-7
0.464, 3.649e-7
0.468, 4.709e-7
0.472, 4.473e-7
0.476, 3.885e-7
0.480, 4.827e-7
0.484, 3.178e-7
0.488, 3.296e-7
0.492, 4.238e-7
0.496, 3.649e-7
0.500, 4.826e-7
0.504, 2.943e-7
0.508, 4.827e-7
0.512, 4.356e-7
0.516, 2.472e-7
0.520, 2.825e-7
0.524, 3.885e-7
0.528, 3.885e-7
0.532, 3.767e-7
0.536, 4.709e-7
0.540, 4.591e-7
0.544, 5.062e-7
0.548, 4.356e-7
0.552, 3.649e-7
0.556, 3.885e-7
0.560, 5.651e-7
0.564, 4.709e-7
0.568, 3.885e-7
0.572, 5.651e-7
0.576, 4.002e-7
0.580, 2.001e-7
0.584, 3.885e-7
0.588, 5.180e-7
0.592, 4.944e-7
0.596, 4.826e-7
0.600, 3.885e-7
0.604, 3.767e-7
0.608, 4.356e-7
0.612, 5.886e-7
0.616, 6.239e-7
0.620, 4.944e-7
0.624, 4.709e-7
0.628, 4.826e-7
0.632, 4.002e-7
0.636, 5.062e-7
0.640, 4.356e-7
0.644, 4.826e-7
0.648, 3.767e-7
0.652, 4.473e-7
0.656, 6.004e-7
0.660, 5.533e-7
0.664, 4.120e-7
0.668, 5.180e-7
0.672, 4.944e-7
0.676, 5.415e-7
0.680, 5.768e-7
0.684, 4.356e-7
0.688, 6.239e-7
0.692, 5.297e-7
0.696, 7.416e-7
0.700, 8.240e-7
0.704, 8.123e-7
0.708, 8.005e-7
0.712, 1.224e-6
0.716, 1.413e-6
0.720, 1.730e-6
0.724, 1.954e-6
0.728, 2.201e-6
0.732, 2.637e-6
0.736, 2.908e-6
0.740, 3.414e-6
0.744, 3.908e-6
0.748, 4.156e-6
0.752, 4.603e-6
0.756, 5.003e-6
0.760, 5.309e-6
0.764, 5.627e-6
0.768, 5.827e-6
0.772, 5.968e-6
0.776, 6.157e-6
0.780, 6.404e-6
0.784, 6.463e-6
0.788, 6.616e-6
0.792, 6.545e-6
0.796, 6.628e-6
0.800, 6.463e-6
0.804, 6.451e-6
0.808, 6.192e-6
0.812, 6.286e-6
0.816, 5.968e-6
0.820, 5.827e-6
0.824, 5.462e-6
0.828, 5.486e-6
0.832, 5.286e-6
0.836, 5.333e-6
0.840, 5.321e-6
0.844, 5.121e-6
0.848, 5.121e-6
0.852, 4.980e-6
0.856, 4.968e-6
0.860, 4.838e-6
0.864, 4.650e-6
0.868, 4.638e-6
0.872, 4.626e-6
0.876, 4.579e-6
0.880, 4.403e-6
0.884, 4.450e-6
0.888, 4.391e-6
0.892, 4.391e-6
0.896, 4.426e-6
0.900, 4.073e-6
0.904, 4.191e-6
0.908, 4.120e-6
0.912, 4.273e-6
0.916, 4.132e-6
0.920, 4.132e-6
0.924, 3.991e-6
0.928, 4.108e-6
0.932, 4.179e-6
0.936, 4.097e-6
0.940, 4.179e-6
0.944, 4.085e-6
0.948, 3.955e-6
0.952, 3.920e-6
0.956, 3.944e-6
0.960, 3.991e-6
0.964, 3.826e-6
0.968, 4.026e-6
0.972, 3.920e-6
0.976, 3.814e-6
0.980, 3.802e-6
0.984, 3.967e-6
0.988, 3.885e-6
0.992, 3.885e-6
0.996, 3.979e-6
1.000, 3.967e-6
