July 25, 2025   08:17:32
Differential Pulse Voltammetry
File: e:\Data Source:  Experiment
Instrument Model:  CHI620E
Header: 
Note: 

Init E (V) = 0
Final E (V) = 1
Incr E (V) = 0.004
Amplitude (V) = 0.05
Pulse Width (sec) = 0.05
Sample Width (sec) = 0.0167
Pulse Period (sec) = 0.5
Quiet Time (sec) = 2
Sensitivity (A/V) = 0.01

Results:

Channel 1:
Ep = 0.620V
ip = 7.243e-6A
Ap = 1.076e-6VA

Potential/V, Current/A

0.004, 6.804e-6
0.008, 6.204e-6
0.012, 5.639e-6
0.016, 5.085e-6
0.020, 4.568e-6
0.024, 4.214e-6
0.028, 4.026e-6
0.032, 3.626e-6
0.036, 3.590e-6
0.040, 3.402e-6
0.044, 3.202e-6
0.048, 3.084e-6
0.052, 2.755e-6
0.056, 2.684e-6
0.060, 2.708e-6
0.064, 2.555e-6
0.068, 2.331e-6
0.072, 2.319e-6
0.076, 2.107e-6
0.080, 2.213e-6
0.084, 2.013e-6
0.088, 1.978e-6
0.092, 2.095e-6
0.096, 1.966e-6
0.100, 1.766e-6
0.104, 1.813e-6
0.108, 1.801e-6
0.112, 1.707e-6
0.116, 1.707e-6
0.120, 1.436e-6
0.124, 1.613e-6
0.128, 1.542e-6
0.132, 1.495e-6
0.136, 1.460e-6
0.140, 1.460e-6
0.144, 1.424e-6
0.148, 1.530e-6
0.152, 1.342e-6
0.156, 1.307e-6
0.160, 1.377e-6
0.164, 1.436e-6
0.168, 1.460e-6
0.172, 1.236e-6
0.176, 1.271e-6
0.180, 1.271e-6
0.184, 1.107e-6
0.188, 1.295e-6
0.192, 1.307e-6
0.196, 1.189e-6
0.200, 1.165e-6
0.204, 1.189e-6
0.208, 1.165e-6
0.212, 1.083e-6
0.216, 1.107e-6
0.220, 1.154e-6
0.224, 9.653e-7
0.228, 1.130e-6
0.232, 9.888e-7
0.236, 1.095e-6
0.240, 9.418e-7
0.244, 1.048e-6
0.248, 9.300e-7
0.252, 1.071e-6
0.256, 9.653e-7
0.260, 1.059e-6
0.264, 9.653e-7
0.268, 9.300e-7
0.272, 9.771e-7
0.276, 8.240e-7
0.280, 1.001e-6
0.284, 1.036e-6
0.288, 9.300e-7
0.292, 9.653e-7
0.296, 8.829e-7
0.300, 9.064e-7
0.304, 8.711e-7
0.308, 8.829e-7
0.312, 8.358e-7
0.316, 9.771e-7
0.320, 9.771e-7
0.324, 9.064e-7
0.328, 8.240e-7
0.332, 9.771e-7
0.336, 8.594e-7
0.340, 8.594e-7
0.344, 7.652e-7
0.348, 9.771e-7
0.352, 9.064e-7
0.356, 9.771e-7
0.360, 8.358e-7
0.364, 9.182e-7
0.368, 1.024e-6
0.372, 9.535e-7
0.376, 8.829e-7
0.380, 9.418e-7
0.384, 9.771e-7
0.388, 8.829e-7
0.392, 8.594e-7
0.396, 9.535e-7
0.400, 9.418e-7
0.404, 9.535e-7
0.408, 8.829e-7
0.412, 1.024e-6
0.416, 8.240e-7
0.420, 9.064e-7
0.424, 8.829e-7
0.428, 9.064e-7
0.432, 8.005e-7
0.436, 8.711e-7
0.440, 7.416e-7
0.444, 9.182e-7
0.448, 8.358e-7
0.452, 7.887e-7
0.456, 8.123e-7
0.460, 1.024e-6
0.464, 8.829e-7
0.468, 1.059e-6
0.472, 8.829e-7
0.476, 9.418e-7
0.480, 1.001e-6
0.484, 9.771e-7
0.488, 1.012e-6
0.492, 1.095e-6
0.496, 1.142e-6
0.500, 1.224e-6
0.504, 1.142e-6
0.508, 1.248e-6
0.512, 1.295e-6
0.516, 1.283e-6
0.520, 1.483e-6
0.524, 1.601e-6
0.528, 1.719e-6
0.532, 1.801e-6
0.536, 1.966e-6
0.540, 2.225e-6
0.544, 2.354e-6
0.548, 2.684e-6
0.552, 2.778e-6
0.556, 3.202e-6
0.560, 3.390e-6
0.564, 3.861e-6
0.568, 4.332e-6
0.572, 4.921e-6
0.576, 5.639e-6
0.580, 6.051e-6
0.584, 7.040e-6
0.588, 7.664e-6
0.592, 8.217e-6
0.596, 8.664e-6
0.600, 8.935e-6
0.604, 9.347e-6
0.608, 9.524e-6
0.612, 9.594e-6
0.616, 9.665e-6
0.620, 9.735e-6
0.624, 9.606e-6
0.628, 9.653e-6
0.632, 9.418e-6
0.636, 9.571e-6
0.640, 9.429e-6
0.644, 9.253e-6
0.648, 9.300e-6
0.652, 9.159e-6
0.656, 9.135e-6
0.660, 8.829e-6
0.664, 8.829e-6
0.668, 8.476e-6
0.672, 8.476e-6
0.676, 8.311e-6
0.680, 8.052e-6
0.684, 7.958e-6
0.688, 7.699e-6
0.692, 7.628e-6
0.696, 7.381e-6
0.700, 7.287e-6
0.704, 7.098e-6
0.708, 7.028e-6
0.712, 6.804e-6
0.716, 6.698e-6
0.720, 6.675e-6
0.724, 6.557e-6
0.728, 6.380e-6
0.732, 6.298e-6
0.736, 6.133e-6
0.740, 6.121e-6
0.744, 6.074e-6
0.748, 6.039e-6
0.752, 5.968e-6
0.756, 5.980e-6
0.760, 5.804e-6
0.764, 5.874e-6
0.768, 5.603e-6
0.772, 5.651e-6
0.776, 5.580e-6
0.780, 5.662e-6
0.784, 5.686e-6
0.788, 5.368e-6
0.792, 5.439e-6
0.796, 5.521e-6
0.800, 5.297e-6
0.804, 5.297e-6
0.808, 5.227e-6
0.812, 5.109e-6
0.816, 5.180e-6
0.820, 5.156e-6
0.824, 4.850e-6
0.828, 4.921e-6
0.832, 4.956e-6
0.836, 4.874e-6
0.840, 4.756e-6
0.844, 4.756e-6
0.848, 4.756e-6
0.852, 4.744e-6
0.856, 4.603e-6
0.860, 4.697e-6
0.864, 4.662e-6
0.868, 4.638e-6
0.872, 4.591e-6
0.876, 4.603e-6
0.880, 4.356e-6
0.884, 4.426e-6
0.888, 4.261e-6
0.892, 4.438e-6
0.896, 4.426e-6
0.900, 4.320e-6
0.904, 4.273e-6
0.908, 4.309e-6
0.912, 4.285e-6
0.916, 4.261e-6
0.920, 4.085e-6
0.924, 4.344e-6
0.928, 4.156e-6
0.932, 4.156e-6
0.936, 4.108e-6
0.940, 4.167e-6
0.944, 4.085e-6
0.948, 4.144e-6
0.952, 4.014e-6
0.956, 3.991e-6
0.960, 3.991e-6
0.964, 4.014e-6
0.968, 4.073e-6
0.972, 4.073e-6
0.976, 4.002e-6
0.980, 4.085e-6
0.984, 4.002e-6
0.988, 4.026e-6
0.992, 4.061e-6
0.996, 4.038e-6
1.000, 3.955e-6
