July 25, 2025   08:21:53
Differential Pulse Voltammetry
File: e:\Data Source:  Experiment
Instrument Model:  CHI620E
Header: 
Note: 

Init E (V) = 0
Final E (V) = 1
Incr E (V) = 0.004
Amplitude (V) = 0.05
Pulse Width (sec) = 0.05
Sample Width (sec) = 0.0167
Pulse Period (sec) = 0.5
Quiet Time (sec) = 2
Sensitivity (A/V) = 0.01

Results:

Channel 1:
Ep = 0.660V
ip = 6.812e-6A
Ap = 1.022e-6VA

Potential/V, Current/A

0.004, 6.769e-6
0.008, 6.145e-6
0.012, 5.474e-6
0.016, 5.038e-6
0.020, 4.591e-6
0.024, 4.167e-6
0.028, 3.932e-6
0.032, 3.614e-6
0.036, 3.402e-6
0.040, 3.214e-6
0.044, 3.084e-6
0.048, 2.861e-6
0.052, 2.790e-6
0.056, 2.602e-6
0.060, 2.366e-6
0.064, 2.472e-6
0.068, 2.142e-6
0.072, 2.213e-6
0.076, 2.095e-6
0.080, 1.966e-6
0.084, 1.848e-6
0.088, 1.848e-6
0.092, 1.778e-6
0.096, 1.789e-6
0.100, 1.625e-6
0.104, 1.625e-6
0.108, 1.589e-6
0.112, 1.577e-6
0.116, 1.577e-6
0.120, 1.366e-6
0.124, 1.471e-6
0.128, 1.542e-6
0.132, 1.354e-6
0.136, 1.354e-6
0.140, 1.307e-6
0.144, 1.366e-6
0.148, 1.295e-6
0.152, 1.154e-6
0.156, 1.189e-6
0.160, 1.283e-6
0.164, 1.236e-6
0.168, 1.201e-6
0.172, 1.154e-6
0.176, 1.165e-6
0.180, 1.095e-6
0.184, 1.095e-6
0.188, 1.118e-6
0.192, 1.154e-6
0.196, 9.300e-7
0.200, 1.071e-6
0.204, 1.071e-6
0.208, 1.118e-6
0.212, 9.300e-7
0.216, 1.048e-6
0.220, 1.024e-6
0.224, 1.036e-6
0.228, 9.771e-7
0.232, 8.476e-7
0.236, 1.048e-6
0.240, 9.771e-7
0.244, 1.059e-6
0.248, 8.594e-7
0.252, 9.771e-7
0.256, 9.418e-7
0.260, 7.770e-7
0.264, 9.064e-7
0.268, 9.064e-7
0.272, 9.771e-7
0.276, 9.653e-7
0.280, 8.829e-7
0.284, 8.005e-7
0.288, 8.594e-7
0.292, 8.829e-7
0.296, 7.887e-7
0.300, 1.012e-6
0.304, 7.534e-7
0.308, 8.947e-7
0.312, 8.240e-7
0.316, 8.358e-7
0.320, 7.887e-7
0.324, 6.945e-7
0.328, 7.887e-7
0.332, 8.240e-7
0.336, 9.300e-7
0.340, 8.947e-7
0.344, 6.121e-7
0.348, 8.358e-7
0.352, 1.012e-6
0.356, 7.416e-7
0.360, 8.005e-7
0.364, 7.887e-7
0.368, 8.358e-7
0.372, 8.476e-7
0.376, 7.887e-7
0.380, 8.123e-7
0.384, 8.005e-7
0.388, 7.769e-7
0.392, 9.418e-7
0.396, 8.711e-7
0.400, 8.240e-7
0.404, 8.240e-7
0.408, 7.887e-7
0.412, 1.012e-6
0.416, 7.299e-7
0.420, 7.770e-7
0.424, 7.063e-7
0.428, 6.357e-7
0.432, 7.770e-7
0.436, 8.005e-7
0.440, 7.181e-7
0.444, 9.535e-7
0.448, 9.182e-7
0.452, 6.945e-7
0.456, 5.886e-7
0.460, 7.770e-7
0.464, 8.947e-7
0.468, 9.418e-7
0.472, 7.770e-7
0.476, 7.416e-7
0.480, 8.594e-7
0.484, 8.947e-7
0.488, 1.012e-6
0.492, 9.418e-7
0.496, 9.535e-7
0.500, 9.182e-7
0.504, 1.083e-6
0.508, 1.154e-6
0.512, 1.012e-6
0.516, 1.224e-6
0.520, 1.177e-6
0.524, 1.236e-6
0.528, 1.401e-6
0.532, 1.436e-6
0.536, 1.601e-6
0.540, 1.778e-6
0.544, 1.778e-6
0.548, 1.836e-6
0.552, 1.989e-6
0.556, 2.366e-6
0.560, 2.566e-6
0.564, 2.861e-6
0.568, 3.096e-6
0.572, 3.331e-6
0.576, 3.885e-6
0.580, 4.120e-6
0.584, 4.638e-6
0.588, 5.109e-6
0.592, 5.392e-6
0.596, 5.957e-6
0.600, 6.192e-6
0.604, 6.675e-6
0.608, 7.016e-6
0.612, 7.287e-6
0.616, 7.640e-6
0.620, 7.946e-6
0.624, 8.382e-6
0.628, 8.782e-6
0.632, 8.829e-6
0.636, 9.100e-6
0.640, 9.159e-6
0.644, 9.217e-6
0.648, 9.476e-6
0.652, 9.488e-6
0.656, 9.488e-6
0.660, 9.512e-6
0.664, 9.382e-6
0.668, 9.418e-6
0.672, 9.253e-6
0.676, 8.970e-6
0.680, 8.923e-6
0.684, 8.582e-6
0.688, 8.429e-6
0.692, 8.193e-6
0.696, 7.887e-6
0.700, 7.852e-6
0.704, 7.640e-6
0.708, 7.511e-6
0.712, 7.287e-6
0.716, 7.063e-6
0.720, 7.016e-6
0.724, 6.816e-6
0.728, 6.639e-6
0.732, 6.581e-6
0.736, 6.439e-6
0.740, 6.380e-6
0.744, 6.239e-6
0.748, 6.298e-6
0.752, 6.133e-6
0.756, 6.039e-6
0.760, 6.027e-6
0.764, 5.921e-6
0.768, 5.910e-6
0.772, 5.733e-6
0.776, 5.804e-6
0.780, 5.698e-6
0.784, 5.780e-6
0.788, 5.651e-6
0.792, 5.533e-6
0.796, 5.556e-6
0.800, 5.415e-6
0.804, 5.439e-6
0.808, 5.450e-6
0.812, 5.262e-6
0.816, 5.286e-6
0.820, 5.144e-6
0.824, 5.050e-6
0.828, 5.003e-6
0.832, 4.956e-6
0.836, 4.838e-6
0.840, 4.874e-6
0.844, 4.909e-6
0.848, 4.862e-6
0.852, 4.626e-6
0.856, 4.697e-6
0.860, 4.626e-6
0.864, 4.650e-6
0.868, 4.615e-6
0.872, 4.615e-6
0.876, 4.579e-6
0.880, 4.568e-6
0.884, 4.544e-6
0.888, 4.379e-6
0.892, 4.414e-6
0.896, 4.309e-6
0.900, 4.179e-6
0.904, 4.191e-6
0.908, 4.273e-6
0.912, 4.238e-6
0.916, 4.238e-6
0.920, 4.261e-6
0.924, 4.214e-6
0.928, 4.203e-6
0.932, 4.014e-6
0.936, 4.120e-6
0.940, 4.167e-6
0.944, 4.108e-6
0.948, 4.120e-6
0.952, 4.073e-6
0.956, 4.014e-6
0.960, 3.967e-6
0.964, 3.967e-6
0.968, 3.979e-6
0.972, 4.026e-6
0.976, 3.967e-6
0.980, 4.026e-6
0.984, 3.955e-6
0.988, 4.026e-6
0.992, 3.826e-6
0.996, 3.885e-6
1.000, 3.920e-6
