July 14, 2025   11:21:41
Differential Pulse Voltammetry
File: e:\Data Source:  Experiment
Instrument Model:  CHI620E
Header: 
Note: 

Init E (V) = 0
Final E (V) = 1
Incr E (V) = 0.004
Amplitude (V) = 0.05
Pulse Width (sec) = 0.05
Sample Width (sec) = 0.0167
Pulse Period (sec) = 0.5
Quiet Time (sec) = 2
Sensitivity (A/V) = 0.01

Results:

Channel 1:
Ep = 0.772V
ip = 1.147e-5A
Ap = 5.898e-7VA

Potential/V, Current/A

0.004, 7.734e-6
0.008, 6.898e-6
0.012, 6.486e-6
0.016, 6.192e-6
0.020, 6.133e-6
0.024, 5.674e-6
0.028, 5.498e-6
0.032, 5.168e-6
0.036, 4.909e-6
0.040, 4.697e-6
0.044, 4.638e-6
0.048, 4.379e-6
0.052, 4.167e-6
0.056, 3.897e-6
0.060, 4.026e-6
0.064, 3.743e-6
0.068, 3.614e-6
0.072, 3.590e-6
0.076, 3.555e-6
0.080, 3.437e-6
0.084, 3.414e-6
0.088, 3.226e-6
0.092, 3.096e-6
0.096, 3.025e-6
0.100, 2.931e-6
0.104, 2.790e-6
0.108, 2.872e-6
0.112, 2.660e-6
0.116, 2.649e-6
0.120, 2.649e-6
0.124, 2.590e-6
0.128, 2.484e-6
0.132, 2.472e-6
0.136, 2.284e-6
0.140, 2.390e-6
0.144, 2.331e-6
0.148, 2.307e-6
0.152, 2.142e-6
0.156, 2.119e-6
0.160, 2.237e-6
0.164, 1.978e-6
0.168, 1.954e-6
0.172, 1.989e-6
0.176, 1.954e-6
0.180, 1.907e-6
0.184, 1.966e-6
0.188, 1.919e-6
0.192, 1.884e-6
0.196, 1.813e-6
0.200, 1.825e-6
0.204, 1.931e-6
0.208, 1.742e-6
0.212, 1.707e-6
0.216, 1.719e-6
0.220, 1.672e-6
0.224, 1.542e-6
0.228, 1.495e-6
0.232, 1.648e-6
0.236, 1.483e-6
0.240, 1.672e-6
0.244, 1.448e-6
0.248, 1.460e-6
0.252, 1.460e-6
0.256, 1.483e-6
0.260, 1.295e-6
0.264, 1.413e-6
0.268, 1.448e-6
0.272, 1.330e-6
0.276, 1.260e-6
0.280, 1.366e-6
0.284, 1.248e-6
0.288, 1.260e-6
0.292, 1.260e-6
0.296, 1.307e-6
0.300, 1.118e-6
0.304, 1.107e-6
0.308, 1.201e-6
0.312, 1.095e-6
0.316, 1.177e-6
0.320, 1.248e-6
0.324, 1.071e-6
0.328, 1.107e-6
0.332, 1.107e-6
0.336, 1.165e-6
0.340, 1.142e-6
0.344, 9.535e-7
0.348, 1.048e-6
0.352, 1.130e-6
0.356, 1.130e-6
0.360, 1.071e-6
0.364, 1.095e-6
0.368, 1.024e-6
0.372, 1.024e-6
0.376, 1.048e-6
0.380, 1.107e-6
0.384, 1.071e-6
0.388, 9.418e-7
0.392, 8.711e-7
0.396, 1.130e-6
0.400, 1.130e-6
0.404, 1.036e-6
0.408, 1.024e-6
0.412, 1.059e-6
0.416, 9.653e-7
0.420, 9.653e-7
0.424, 8.594e-7
0.428, 9.653e-7
0.432, 8.711e-7
0.436, 9.418e-7
0.440, 7.416e-7
0.444, 9.064e-7
0.448, 7.769e-7
0.452, 7.181e-7
0.456, 9.064e-7
0.460, 8.240e-7
0.464, 8.594e-7
0.468, 9.064e-7
0.472, 8.829e-7
0.476, 8.711e-7
0.480, 8.123e-7
0.484, 8.240e-7
0.488, 8.240e-7
0.492, 8.123e-7
0.496, 6.828e-7
0.500, 7.887e-7
0.504, 7.299e-7
0.508, 7.534e-7
0.512, 8.240e-7
0.516, 8.123e-7
0.520, 7.063e-7
0.524, 6.592e-7
0.528, 6.945e-7
0.532, 6.592e-7
0.536, 6.828e-7
0.540, 7.063e-7
0.544, 7.299e-7
0.548, 5.768e-7
0.552, 7.063e-7
0.556, 7.769e-7
0.560, 6.945e-7
0.564, 7.181e-7
0.568, 7.299e-7
0.572, 7.063e-7
0.576, 6.945e-7
0.580, 7.181e-7
0.584, 8.358e-7
0.588, 7.181e-7
0.592, 8.123e-7
0.596, 7.299e-7
0.600, 7.063e-7
0.604, 6.592e-7
0.608, 6.592e-7
0.612, 5.415e-7
0.616, 6.945e-7
0.620, 7.652e-7
0.624, 6.828e-7
0.628, 6.239e-7
0.632, 5.886e-7
0.636, 7.416e-7
0.640, 6.121e-7
0.644, 5.415e-7
0.648, 7.063e-7
0.652, 8.476e-7
0.656, 7.534e-7
0.660, 8.358e-7
0.664, 6.945e-7
0.668, 9.182e-7
0.672, 1.024e-6
0.676, 9.535e-7
0.680, 1.107e-6
0.684, 1.307e-6
0.688, 1.542e-6
0.692, 1.707e-6
0.696, 2.013e-6
0.700, 2.484e-6
0.704, 3.108e-6
0.708, 3.626e-6
0.712, 4.615e-6
0.716, 5.709e-6
0.720, 7.098e-6
0.724, 8.711e-6
0.728, 1.050e-5
0.732, 1.273e-5
0.736, 1.477e-5
0.740, 1.688e-5
0.744, 1.929e-5
0.748, 2.193e-5
0.752, 2.443e-5
0.756, 2.663e-5
0.760, 2.822e-5
0.764, 2.983e-5
0.768, 3.057e-5
0.772, 3.080e-5
0.776, 3.068e-5
0.780, 3.008e-5
0.784, 2.937e-5
0.788, 2.894e-5
0.792, 2.846e-5
0.796, 2.825e-5
0.800, 2.818e-5
0.804, 2.804e-5
0.808, 2.805e-5
0.812, 2.810e-5
0.816, 2.801e-5
0.820, 2.812e-5
0.824, 2.793e-5
0.828, 2.796e-5
0.832, 2.816e-5
0.836, 2.808e-5
0.840, 2.808e-5
0.844, 2.804e-5
0.848, 2.789e-5
0.852, 2.775e-5
0.856, 2.763e-5
0.860, 2.748e-5
0.864, 2.719e-5
0.868, 2.686e-5
0.872, 2.669e-5
0.876, 2.632e-5
0.880, 2.582e-5
0.884, 2.537e-5
0.888, 2.513e-5
0.892, 2.458e-5
0.896, 2.411e-5
0.900, 2.350e-5
0.904, 2.301e-5
0.908, 2.238e-5
0.912, 2.199e-5
0.916, 2.144e-5
0.920, 2.097e-5
0.924, 2.050e-5
0.928, 2.006e-5
0.932, 1.940e-5
0.936, 1.891e-5
0.940, 1.864e-5
0.944, 1.821e-5
0.948, 1.771e-5
0.952, 1.727e-5
0.956, 1.705e-5
0.960, 1.665e-5
0.964, 1.629e-5
0.968, 1.601e-5
0.972, 1.576e-5
0.976, 1.550e-5
0.980, 1.527e-5
0.984, 1.499e-5
0.988, 1.470e-5
0.992, 1.459e-5
0.996, 1.431e-5
1.000, 1.413e-5
