July 10, 2025   17:15:11
Differential Pulse Voltammetry
File: e:\Data Source:  Experiment
Instrument Model:  CHI620E
Header: 
Note: 

Init E (V) = 0
Final E (V) = 1
Incr E (V) = 0.004
Amplitude (V) = 0.05
Pulse Width (sec) = 0.05
Sample Width (sec) = 0.0167
Pulse Period (sec) = 0.5
Quiet Time (sec) = 2
Sensitivity (A/V) = 0.01

Results:

Channel 1:
Ep = 0.916V
ip = 1.040e-4A
Ap = 1.215e-5VA

Potential/V, Current/A

0.004, 4.568e-6
0.008, 4.167e-6
0.012, 3.908e-6
0.016, 3.767e-6
0.020, 3.390e-6
0.024, 3.249e-6
0.028, 3.072e-6
0.032, 2.978e-6
0.036, 3.002e-6
0.040, 2.849e-6
0.044, 2.755e-6
0.048, 2.649e-6
0.052, 2.672e-6
0.056, 2.519e-6
0.060, 2.625e-6
0.064, 2.449e-6
0.068, 2.354e-6
0.072, 2.366e-6
0.076, 2.401e-6
0.080, 2.284e-6
0.084, 2.201e-6
0.088, 2.142e-6
0.092, 2.225e-6
0.096, 2.048e-6
0.100, 1.966e-6
0.104, 1.766e-6
0.108, 1.942e-6
0.112, 2.001e-6
0.116, 2.060e-6
0.120, 1.942e-6
0.124, 1.919e-6
0.128, 1.895e-6
0.132, 1.801e-6
0.136, 1.848e-6
0.140, 1.872e-6
0.144, 1.919e-6
0.148, 1.719e-6
0.152, 1.695e-6
0.156, 1.778e-6
0.160, 1.860e-6
0.164, 1.730e-6
0.168, 1.766e-6
0.172, 1.778e-6
0.176, 1.707e-6
0.180, 1.636e-6
0.184, 1.507e-6
0.188, 1.566e-6
0.192, 1.648e-6
0.196, 1.530e-6
0.200, 1.471e-6
0.204, 1.483e-6
0.208, 1.495e-6
0.212, 1.424e-6
0.216, 1.389e-6
0.220, 1.366e-6
0.224, 1.471e-6
0.228, 1.318e-6
0.232, 1.260e-6
0.236, 1.177e-6
0.240, 1.366e-6
0.244, 1.342e-6
0.248, 1.354e-6
0.252, 1.177e-6
0.256, 1.189e-6
0.260, 1.154e-6
0.264, 1.201e-6
0.268, 1.224e-6
0.272, 1.248e-6
0.276, 1.201e-6
0.280, 1.036e-6
0.284, 1.130e-6
0.288, 1.224e-6
0.292, 1.012e-6
0.296, 1.083e-6
0.300, 9.888e-7
0.304, 1.083e-6
0.308, 1.001e-6
0.312, 1.036e-6
0.316, 1.048e-6
0.320, 1.001e-6
0.324, 8.947e-7
0.328, 8.947e-7
0.332, 9.535e-7
0.336, 9.182e-7
0.340, 8.711e-7
0.344, 8.711e-7
0.348, 9.064e-7
0.352, 8.829e-7
0.356, 7.770e-7
0.360, 9.771e-7
0.364, 9.418e-7
0.368, 9.300e-7
0.372, 9.653e-7
0.376, 8.594e-7
0.380, 1.036e-6
0.384, 9.064e-7
0.388, 8.358e-7
0.392, 7.652e-7
0.396, 8.123e-7
0.400, 7.416e-7
0.404, 9.300e-7
0.408, 6.828e-7
0.412, 8.947e-7
0.416, 7.534e-7
0.420, 5.768e-7
0.424, 6.592e-7
0.428, 8.123e-7
0.432, 6.475e-7
0.436, 8.829e-7
0.440, 5.768e-7
0.444, 7.063e-7
0.448, 8.711e-7
0.452, 7.534e-7
0.456, 6.121e-7
0.460, 6.945e-7
0.464, 6.121e-7
0.468, 7.181e-7
0.472, 6.592e-7
0.476, 7.181e-7
0.480, 7.063e-7
0.484, 6.828e-7
0.488, 7.299e-7
0.492, 6.475e-7
0.496, 7.770e-7
0.500, 6.475e-7
0.504, 6.828e-7
0.508, 6.710e-7
0.512, 7.652e-7
0.516, 5.651e-7
0.520, 7.416e-7
0.524, 6.710e-7
0.528, 6.239e-7
0.532, 6.592e-7
0.536, 7.181e-7
0.540, 7.416e-7
0.544, 6.828e-7
0.548, 6.592e-7
0.552, 7.181e-7
0.556, 7.181e-7
0.560, 6.475e-7
0.564, 7.534e-7
0.568, 7.770e-7
0.572, 8.594e-7
0.576, 8.593e-7
0.580, 7.769e-7
0.584, 9.064e-7
0.588, 9.182e-7
0.592, 9.888e-7
0.596, 7.652e-7
0.600, 1.012e-6
0.604, 9.418e-7
0.608, 1.107e-6
0.612, 9.535e-7
0.616, 1.012e-6
0.620, 1.142e-6
0.624, 1.248e-6
0.628, 1.024e-6
0.632, 1.071e-6
0.636, 1.271e-6
0.640, 1.189e-6
0.644, 1.330e-6
0.648, 1.295e-6
0.652, 1.530e-6
0.656, 1.507e-6
0.660, 1.413e-6
0.664, 1.495e-6
0.668, 1.672e-6
0.672, 1.660e-6
0.676, 1.707e-6
0.680, 1.848e-6
0.684, 2.013e-6
0.688, 2.201e-6
0.692, 2.154e-6
0.696, 2.272e-6
0.700, 2.425e-6
0.704, 2.719e-6
0.708, 2.743e-6
0.712, 3.025e-6
0.716, 3.296e-6
0.720, 3.532e-6
0.724, 3.897e-6
0.728, 4.320e-6
0.732, 4.815e-6
0.736, 5.533e-6
0.740, 6.463e-6
0.744, 7.699e-6
0.748, 9.135e-6
0.752, 1.114e-5
0.756, 1.427e-5
0.760, 1.862e-5
0.764, 2.540e-5
0.768, 3.454e-5
0.772, 4.821e-5
0.776, 6.311e-5
0.780, 7.566e-5
0.784, 8.777e-5
0.788, 9.860e-5
0.792, 1.035e-4
0.796, 1.022e-4
0.800, 9.878e-5
0.804, 9.751e-5
0.808, 9.852e-5
0.812, 1.001e-4
0.816, 1.028e-4
0.820, 1.059e-4
0.824, 1.094e-4
0.828, 1.135e-4
0.832, 1.172e-4
0.836, 1.214e-4
0.840, 1.256e-4
0.844, 1.303e-4
0.848, 1.346e-4
0.852, 1.395e-4
0.856, 1.447e-4
0.860, 1.500e-4
0.864, 1.555e-4
0.868, 1.612e-4
0.872, 1.675e-4
0.876, 1.736e-4
0.880, 1.801e-4
0.884, 1.864e-4
0.888, 1.921e-4
0.892, 1.980e-4
0.896, 2.029e-4
0.900, 2.071e-4
0.904, 2.106e-4
0.908, 2.133e-4
0.912, 2.146e-4
0.916, 2.149e-4
0.920, 2.141e-4
0.924, 2.119e-4
0.928, 2.088e-4
0.932, 2.049e-4
0.936, 2.000e-4
0.940, 1.948e-4
0.944, 1.891e-4
0.948, 1.833e-4
0.952, 1.771e-4
0.956, 1.711e-4
0.960, 1.645e-4
0.964, 1.580e-4
0.968, 1.514e-4
0.972, 1.443e-4
0.976, 1.370e-4
0.980, 1.293e-4
0.984, 1.212e-4
0.988, 1.133e-4
0.992, 1.052e-4
0.996, 9.712e-5
1.000, 8.971e-5
