July 24, 2025   19:56:23
Differential Pulse Voltammetry
File: e:\Data Source:  Experiment
Instrument Model:  CHI620E
Header: 
Note: 

Init E (V) = 0
Final E (V) = 1
Incr E (V) = 0.004
Amplitude (V) = 0.05
Pulse Width (sec) = 0.05
Sample Width (sec) = 0.0167
Pulse Period (sec) = 0.5
Quiet Time (sec) = 2
Sensitivity (A/V) = 0.01

Results:

Channel 1:
Ep = 0.700V
ip = 1.104e-5A
Ap = 1.183e-6VA

Potential/V, Current/A

0.004, 5.498e-6
0.008, 5.851e-6
0.012, 5.074e-6
0.016, 5.368e-6
0.020, 4.709e-6
0.024, 5.309e-6
0.028, 4.897e-6
0.032, 4.579e-6
0.036, 5.074e-6
0.040, 4.238e-6
0.044, 4.803e-6
0.048, 4.356e-6
0.052, 4.309e-6
0.056, 4.273e-6
0.060, 4.050e-6
0.064, 4.426e-6
0.068, 4.097e-6
0.072, 3.791e-6
0.076, 4.332e-6
0.080, 4.179e-6
0.084, 3.720e-6
0.088, 4.120e-6
0.092, 3.720e-6
0.096, 3.885e-6
0.100, 3.920e-6
0.104, 3.661e-6
0.108, 3.967e-6
0.112, 3.485e-6
0.116, 3.720e-6
0.120, 3.849e-6
0.124, 3.320e-6
0.128, 3.414e-6
0.132, 3.802e-6
0.136, 3.532e-6
0.140, 3.967e-6
0.144, 3.485e-6
0.148, 3.131e-6
0.152, 3.167e-6
0.156, 2.919e-6
0.160, 3.390e-6
0.164, 3.261e-6
0.168, 3.178e-6
0.172, 3.214e-6
0.176, 2.861e-6
0.180, 3.249e-6
0.184, 3.096e-6
0.188, 2.990e-6
0.192, 3.379e-6
0.196, 2.660e-6
0.200, 3.226e-6
0.204, 2.766e-6
0.208, 2.814e-6
0.212, 2.766e-6
0.216, 2.366e-6
0.220, 2.684e-6
0.224, 2.578e-6
0.228, 2.696e-6
0.232, 2.719e-6
0.236, 2.613e-6
0.240, 2.390e-6
0.244, 2.460e-6
0.248, 2.178e-6
0.252, 2.390e-6
0.256, 2.366e-6
0.260, 1.942e-6
0.264, 2.272e-6
0.268, 2.225e-6
0.272, 2.296e-6
0.276, 2.331e-6
0.280, 1.884e-6
0.284, 2.060e-6
0.288, 2.248e-6
0.292, 1.942e-6
0.296, 2.154e-6
0.300, 1.989e-6
0.304, 2.060e-6
0.308, 2.119e-6
0.312, 1.625e-6
0.316, 2.060e-6
0.320, 1.966e-6
0.324, 1.766e-6
0.328, 1.919e-6
0.332, 1.919e-6
0.336, 1.895e-6
0.340, 1.942e-6
0.344, 1.648e-6
0.348, 1.978e-6
0.352, 1.683e-6
0.356, 1.931e-6
0.360, 1.895e-6
0.364, 1.884e-6
0.368, 1.989e-6
0.372, 1.848e-6
0.376, 1.848e-6
0.380, 1.754e-6
0.384, 1.601e-6
0.388, 1.719e-6
0.392, 1.813e-6
0.396, 1.942e-6
0.400, 1.660e-6
0.404, 1.789e-6
0.408, 1.742e-6
0.412, 1.778e-6
0.416, 1.672e-6
0.420, 1.683e-6
0.424, 1.754e-6
0.428, 1.648e-6
0.432, 1.813e-6
0.436, 1.366e-6
0.440, 1.813e-6
0.444, 1.483e-6
0.448, 1.825e-6
0.452, 1.683e-6
0.456, 1.660e-6
0.460, 1.766e-6
0.464, 1.672e-6
0.468, 1.695e-6
0.472, 1.648e-6
0.476, 1.354e-6
0.480, 1.848e-6
0.484, 1.448e-6
0.488, 1.836e-6
0.492, 1.742e-6
0.496, 1.460e-6
0.500, 1.754e-6
0.504, 1.271e-6
0.508, 1.636e-6
0.512, 1.601e-6
0.516, 1.554e-6
0.520, 1.672e-6
0.524, 1.519e-6
0.528, 1.778e-6
0.532, 1.519e-6
0.536, 1.683e-6
0.540, 1.789e-6
0.544, 1.589e-6
0.548, 1.742e-6
0.552, 1.507e-6
0.556, 2.142e-6
0.560, 1.825e-6
0.564, 1.836e-6
0.568, 1.801e-6
0.572, 1.789e-6
0.576, 2.284e-6
0.580, 1.872e-6
0.584, 2.319e-6
0.588, 2.425e-6
0.592, 2.472e-6
0.596, 2.578e-6
0.600, 2.519e-6
0.604, 3.120e-6
0.608, 3.014e-6
0.612, 3.520e-6
0.616, 3.567e-6
0.620, 3.885e-6
0.624, 4.073e-6
0.628, 4.391e-6
0.632, 5.133e-6
0.636, 5.533e-6
0.640, 6.533e-6
0.644, 6.969e-6
0.648, 7.769e-6
0.652, 8.770e-6
0.656, 9.524e-6
0.660, 1.058e-5
0.664, 1.137e-5
0.668, 1.254e-5
0.672, 1.350e-5
0.676, 1.413e-5
0.680, 1.510e-5
0.684, 1.549e-5
0.688, 1.607e-5
0.692, 1.629e-5
0.696, 1.645e-5
0.700, 1.665e-5
0.704, 1.635e-5
0.708, 1.656e-5
0.712, 1.593e-5
0.716, 1.613e-5
0.720, 1.562e-5
0.724, 1.473e-5
0.728, 1.475e-5
0.732, 1.435e-5
0.736, 1.376e-5
0.740, 1.328e-5
0.744, 1.323e-5
0.748, 1.290e-5
0.752, 1.265e-5
0.756, 1.225e-5
0.760, 1.207e-5
0.764, 1.200e-5
0.768, 1.152e-5
0.772, 1.136e-5
0.776, 1.142e-5
0.780, 1.123e-5
0.784, 1.102e-5
0.788, 1.077e-5
0.792, 1.054e-5
0.796, 1.097e-5
0.800, 1.041e-5
0.804, 1.062e-5
0.808, 1.031e-5
0.812, 1.010e-5
0.816, 1.029e-5
0.820, 9.994e-6
0.824, 9.877e-6
0.828, 9.936e-6
0.832, 1.007e-5
0.836, 9.618e-6
0.840, 9.712e-6
0.844, 1.019e-5
0.848, 9.759e-6
0.852, 9.841e-6
0.856, 9.606e-6
0.860, 9.382e-6
0.864, 9.606e-6
0.868, 9.418e-6
0.872, 9.712e-6
0.876, 9.618e-6
0.880, 9.524e-6
0.884, 9.582e-6
0.888, 9.394e-6
0.892, 9.441e-6
0.896, 9.629e-6
0.900, 9.300e-6
0.904, 8.958e-6
0.908, 9.206e-6
0.912, 9.076e-6
0.916, 9.229e-6
0.920, 8.841e-6
0.924, 8.770e-6
0.928, 8.805e-6
0.932, 8.229e-6
0.936, 8.699e-6
0.940, 8.264e-6
0.944, 8.323e-6
0.948, 8.287e-6
0.952, 8.052e-6
0.956, 8.240e-6
0.960, 7.946e-6
0.964, 8.052e-6
0.968, 7.840e-6
0.972, 7.699e-6
0.976, 7.840e-6
0.980, 7.546e-6
0.984, 7.616e-6
0.988, 7.240e-6
0.992, 7.711e-6
0.996, 7.393e-6
1.000, 7.546e-6
