July 15, 2025   13:28:15
Differential Pulse Voltammetry
File: e:\Data Source:  Experiment
Instrument Model:  CHI620E
Header: 
Note: 

Init E (V) = 0
Final E (V) = 1
Incr E (V) = 0.004
Amplitude (V) = 0.05
Pulse Width (sec) = 0.05
Sample Width (sec) = 0.0167
Pulse Period (sec) = 0.5
Quiet Time (sec) = 2
Sensitivity (A/V) = 0.01

Results:

Channel 1:

Potential/V, Current/A

0.004, 1.597e-5
0.008, 1.516e-5
0.012, 1.421e-5
0.016, 1.293e-5
0.020, 1.203e-5
0.024, 1.134e-5
0.028, 1.077e-5
0.032, 1.030e-5
0.036, 1.003e-5
0.040, 9.818e-6
0.044, 9.653e-6
0.048, 9.629e-6
0.052, 9.359e-6
0.056, 9.253e-6
0.060, 9.182e-6
0.064, 9.017e-6
0.068, 8.829e-6
0.072, 8.758e-6
0.076, 8.570e-6
0.080, 8.570e-6
0.084, 8.299e-6
0.088, 8.134e-6
0.092, 8.052e-6
0.096, 7.946e-6
0.100, 7.734e-6
0.104, 7.463e-6
0.108, 7.581e-6
0.112, 7.334e-6
0.116, 7.346e-6
0.120, 7.028e-6
0.124, 7.016e-6
0.128, 6.945e-6
0.132, 6.710e-6
0.136, 6.686e-6
0.140, 6.686e-6
0.144, 6.404e-6
0.148, 6.416e-6
0.152, 6.345e-6
0.156, 6.192e-6
0.160, 6.169e-6
0.164, 6.051e-6
0.168, 5.968e-6
0.172, 5.862e-6
0.176, 5.686e-6
0.180, 5.674e-6
0.184, 5.415e-6
0.188, 5.415e-6
0.192, 5.498e-6
0.196, 5.321e-6
0.200, 5.380e-6
0.204, 5.215e-6
0.208, 5.144e-6
0.212, 4.980e-6
0.216, 5.003e-6
0.220, 4.885e-6
0.224, 4.768e-6
0.228, 4.768e-6
0.232, 4.626e-6
0.236, 4.568e-6
0.240, 4.603e-6
0.244, 4.391e-6
0.248, 4.285e-6
0.252, 4.403e-6
0.256, 4.250e-6
0.260, 4.250e-6
0.264, 4.214e-6
0.268, 4.332e-6
0.272, 4.120e-6
0.276, 4.108e-6
0.280, 4.038e-6
0.284, 4.014e-6
0.288, 3.944e-6
0.292, 3.814e-6
0.296, 3.826e-6
0.300, 3.955e-6
0.304, 3.908e-6
0.308, 3.685e-6
0.312, 3.743e-6
0.316, 3.779e-6
0.320, 3.755e-6
0.324, 3.567e-6
0.328, 3.720e-6
0.332, 3.638e-6
0.336, 3.485e-6
0.340, 3.508e-6
0.344, 3.426e-6
0.348, 3.602e-6
0.352, 3.543e-6
0.356, 3.602e-6
0.360, 3.461e-6
0.364, 3.638e-6
0.368, 3.579e-6
0.372, 3.414e-6
0.376, 3.284e-6
0.380, 3.437e-6
0.384, 3.390e-6
0.388, 3.355e-6
0.392, 3.461e-6
0.396, 3.320e-6
0.400, 3.390e-6
0.404, 3.390e-6
0.408, 3.190e-6
0.412, 3.367e-6
0.416, 3.261e-6
0.420, 3.155e-6
0.424, 3.355e-6
0.428, 3.190e-6
0.432, 3.284e-6
0.436, 3.143e-6
0.440, 2.967e-6
0.444, 3.226e-6
0.448, 3.167e-6
0.452, 3.202e-6
0.456, 3.131e-6
0.460, 3.120e-6
0.464, 3.331e-6
0.468, 3.084e-6
0.472, 3.167e-6
0.476, 3.226e-6
0.480, 3.143e-6
0.484, 3.143e-6
0.488, 3.237e-6
0.492, 3.143e-6
0.496, 3.237e-6
0.500, 3.084e-6
0.504, 3.190e-6
0.508, 3.155e-6
0.512, 3.226e-6
0.516, 3.273e-6
0.520, 3.131e-6
0.524, 3.343e-6
0.528, 3.390e-6
0.532, 3.308e-6
0.536, 3.320e-6
0.540, 3.390e-6
0.544, 3.390e-6
0.548, 3.496e-6
0.552, 3.473e-6
0.556, 3.755e-6
0.560, 3.897e-6
0.564, 3.814e-6
0.568, 3.979e-6
0.572, 4.132e-6
0.576, 4.403e-6
0.580, 4.579e-6
0.584, 4.956e-6
0.588, 5.344e-6
0.592, 5.839e-6
0.596, 6.345e-6
0.600, 6.945e-6
0.604, 8.005e-6
0.608, 9.170e-6
0.612, 1.057e-5
0.616, 1.222e-5
0.620, 1.448e-5
0.624, 1.687e-5
0.628, 1.988e-5
0.632, 2.313e-5
0.636, 2.749e-5
0.640, 3.231e-5
0.644, 3.705e-5
0.648, 4.201e-5
0.652, 4.677e-5
0.656, 5.071e-5
0.660, 5.364e-5
0.664, 5.563e-5
0.668, 5.638e-5
0.672, 5.635e-5
0.676, 5.607e-5
0.680, 5.572e-5
0.684, 5.538e-5
0.688, 5.515e-5
0.692, 5.496e-5
0.696, 5.450e-5
0.700, 5.490e-5
0.704, 5.526e-5
0.708, 5.578e-5
0.712, 5.632e-5
0.716, 5.707e-5
0.720, 5.781e-5
0.724, 5.852e-5
0.728, 5.902e-5
0.732, 5.979e-5
0.736, 6.057e-5
0.740, 6.104e-5
0.744, 6.166e-5
0.748, 6.224e-5
0.752, 6.267e-5
0.756, 6.317e-5
0.760, 6.376e-5
0.764, 6.429e-5
0.768, 6.488e-5
0.772, 6.536e-5
0.776, 6.571e-5
0.780, 6.612e-5
0.784, 6.649e-5
0.788, 6.676e-5
0.792, 6.670e-5
0.796, 6.681e-5
0.800, 6.678e-5
0.804, 6.651e-5
0.808, 6.632e-5
0.812, 6.609e-5
0.816, 6.549e-5
0.820, 6.496e-5
0.824, 6.417e-5
0.828, 6.345e-5
0.832, 6.240e-5
0.836, 6.137e-5
0.840, 6.027e-5
0.844, 5.902e-5
0.848, 5.764e-5
0.852, 5.613e-5
0.856, 5.460e-5
0.860, 5.301e-5
0.864, 5.144e-5
0.868, 4.944e-5
0.872, 4.768e-5
0.876, 4.604e-5
0.880, 4.407e-5
0.884, 4.228e-5
0.888, 4.041e-5
0.892, 3.888e-5
0.896, 3.695e-5
0.900, 3.559e-5
0.904, 3.402e-5
0.908, 3.253e-5
0.912, 3.118e-5
0.916, 2.989e-5
0.920, 2.852e-5
0.924, 2.741e-5
0.928, 2.631e-5
0.932, 2.533e-5
0.936, 2.442e-5
0.940, 2.353e-5
0.944, 2.263e-5
0.948, 2.187e-5
0.952, 2.113e-5
0.956, 2.064e-5
0.960, 2.007e-5
0.964, 1.942e-5
0.968, 1.889e-5
0.972, 1.851e-5
0.976, 1.807e-5
0.980, 1.781e-5
0.984, 1.746e-5
0.988, 1.713e-5
0.992, 1.686e-5
0.996, 1.662e-5
1.000, 1.657e-5
