July 23, 2025   20:12:06
Differential Pulse Voltammetry
File: e:\Data Source:  Experiment
Instrument Model:  CHI620E
Header: 
Note: 

Init E (V) = 0
Final E (V) = 1
Incr E (V) = 0.004
Amplitude (V) = 0.05
Pulse Width (sec) = 0.05
Sample Width (sec) = 0.0167
Pulse Period (sec) = 0.5
Quiet Time (sec) = 2
Sensitivity (A/V) = 0.01

Results:

Channel 1:
Ep = 0.516V
ip = 3.598e-5A
Ap = 5.209e-6VA

Potential/V, Current/A

0.004, 1.766e-5
0.008, 1.614e-5
0.012, 1.476e-5
0.016, 1.362e-5
0.020, 1.256e-5
0.024, 1.190e-5
0.028, 1.136e-5
0.032, 1.084e-5
0.036, 1.036e-5
0.040, 9.877e-6
0.044, 9.700e-6
0.048, 9.418e-6
0.052, 9.029e-6
0.056, 8.570e-6
0.060, 8.664e-6
0.064, 8.252e-6
0.068, 8.017e-6
0.072, 7.711e-6
0.076, 7.428e-6
0.080, 7.346e-6
0.084, 7.122e-6
0.088, 6.851e-6
0.092, 6.863e-6
0.096, 6.475e-6
0.100, 6.322e-6
0.104, 6.192e-6
0.108, 6.039e-6
0.112, 5.780e-6
0.116, 5.827e-6
0.120, 5.580e-6
0.124, 5.603e-6
0.128, 5.380e-6
0.132, 5.344e-6
0.136, 5.215e-6
0.140, 5.203e-6
0.144, 5.074e-6
0.148, 4.827e-6
0.152, 4.850e-6
0.156, 4.827e-6
0.160, 4.673e-6
0.164, 4.685e-6
0.168, 4.568e-6
0.172, 4.650e-6
0.176, 4.544e-6
0.180, 4.344e-6
0.184, 4.403e-6
0.188, 4.520e-6
0.192, 4.214e-6
0.196, 4.261e-6
0.200, 4.144e-6
0.204, 4.203e-6
0.208, 4.226e-6
0.212, 4.014e-6
0.216, 3.955e-6
0.220, 3.967e-6
0.224, 3.908e-6
0.228, 3.849e-6
0.232, 3.732e-6
0.236, 3.708e-6
0.240, 3.755e-6
0.244, 3.661e-6
0.248, 3.602e-6
0.252, 3.590e-6
0.256, 3.520e-6
0.260, 3.390e-6
0.264, 3.426e-6
0.268, 3.390e-6
0.272, 3.496e-6
0.276, 3.308e-6
0.280, 3.284e-6
0.284, 3.320e-6
0.288, 3.331e-6
0.292, 3.320e-6
0.296, 3.120e-6
0.300, 3.049e-6
0.304, 3.037e-6
0.308, 3.178e-6
0.312, 3.025e-6
0.316, 3.084e-6
0.320, 3.084e-6
0.324, 2.813e-6
0.328, 2.967e-6
0.332, 2.978e-6
0.336, 2.825e-6
0.340, 2.955e-6
0.344, 2.708e-6
0.348, 2.849e-6
0.352, 2.884e-6
0.356, 2.731e-6
0.360, 2.719e-6
0.364, 2.978e-6
0.368, 2.861e-6
0.372, 2.943e-6
0.376, 2.849e-6
0.380, 2.931e-6
0.384, 3.120e-6
0.388, 3.084e-6
0.392, 3.214e-6
0.396, 3.202e-6
0.400, 3.273e-6
0.404, 3.449e-6
0.408, 3.814e-6
0.412, 4.061e-6
0.416, 4.379e-6
0.420, 4.638e-6
0.424, 5.062e-6
0.428, 5.768e-6
0.432, 6.204e-6
0.436, 7.157e-6
0.440, 7.970e-6
0.444, 9.229e-6
0.448, 1.071e-5
0.452, 1.221e-5
0.456, 1.397e-5
0.460, 1.555e-5
0.464, 1.741e-5
0.468, 1.881e-5
0.472, 2.045e-5
0.476, 2.240e-5
0.480, 2.423e-5
0.484, 2.655e-5
0.488, 2.930e-5
0.492, 3.246e-5
0.496, 3.559e-5
0.500, 3.859e-5
0.504, 4.060e-5
0.508, 4.207e-5
0.512, 4.298e-5
0.516, 4.318e-5
0.520, 4.310e-5
0.524, 4.297e-5
0.528, 4.264e-5
0.532, 4.241e-5
0.536, 4.176e-5
0.540, 4.125e-5
0.544, 4.038e-5
0.548, 3.970e-5
0.552, 3.886e-5
0.556, 3.833e-5
0.560, 3.753e-5
0.564, 3.678e-5
0.568, 3.586e-5
0.572, 3.507e-5
0.576, 3.434e-5
0.580, 3.339e-5
0.584, 3.251e-5
0.588, 3.165e-5
0.592, 3.061e-5
0.596, 2.964e-5
0.600, 2.898e-5
0.604, 2.808e-5
0.608, 2.730e-5
0.612, 2.660e-5
0.616, 2.586e-5
0.620, 2.502e-5
0.624, 2.453e-5
0.628, 2.394e-5
0.632, 2.333e-5
0.636, 2.291e-5
0.640, 2.234e-5
0.644, 2.187e-5
0.648, 2.150e-5
0.652, 2.102e-5
0.656, 2.062e-5
0.660, 2.031e-5
0.664, 2.000e-5
0.668, 1.981e-5
0.672, 1.939e-5
0.676, 1.922e-5
0.680, 1.906e-5
0.684, 1.852e-5
0.688, 1.836e-5
0.692, 1.801e-5
0.696, 1.788e-5
0.700, 1.759e-5
0.704, 1.743e-5
0.708, 1.720e-5
0.712, 1.676e-5
0.716, 1.668e-5
0.720, 1.647e-5
0.724, 1.613e-5
0.728, 1.580e-5
0.732, 1.561e-5
0.736, 1.533e-5
0.740, 1.519e-5
0.744, 1.500e-5
0.748, 1.479e-5
0.752, 1.446e-5
0.756, 1.422e-5
0.760, 1.397e-5
0.764, 1.373e-5
0.768, 1.350e-5
0.772, 1.328e-5
0.776, 1.321e-5
0.780, 1.298e-5
0.784, 1.270e-5
0.788, 1.247e-5
0.792, 1.236e-5
0.796, 1.217e-5
0.800, 1.210e-5
0.804, 1.184e-5
0.808, 1.169e-5
0.812, 1.158e-5
0.816, 1.131e-5
0.820, 1.123e-5
0.824, 1.089e-5
0.828, 1.087e-5
0.832, 1.084e-5
0.836, 1.055e-5
0.840, 1.051e-5
0.844, 1.047e-5
0.848, 1.029e-5
0.852, 1.025e-5
0.856, 1.023e-5
0.860, 1.011e-5
0.864, 1.008e-5
0.868, 9.877e-6
0.872, 9.900e-6
0.876, 9.841e-6
0.880, 9.759e-6
0.884, 9.724e-6
0.888, 9.629e-6
0.892, 9.747e-6
0.896, 9.724e-6
0.900, 9.476e-6
0.904, 9.465e-6
0.908, 9.476e-6
0.912, 9.441e-6
0.916, 9.512e-6
0.920, 9.512e-6
0.924, 9.465e-6
0.928, 9.594e-6
0.932, 9.512e-6
0.936, 9.476e-6
0.940, 9.618e-6
0.944, 9.688e-6
0.948, 9.500e-6
0.952, 9.535e-6
0.956, 9.783e-6
0.960, 9.594e-6
0.964, 9.618e-6
0.968, 9.700e-6
0.972, 9.783e-6
0.976, 9.794e-6
0.980, 9.936e-6
0.984, 9.936e-6
0.988, 9.900e-6
0.992, 9.924e-6
0.996, 1.001e-5
1.000, 9.888e-6
