July 23, 2025   20:09:56
Differential Pulse Voltammetry
File: e:\Data Source:  Experiment
Instrument Model:  CHI620E
Header: 
Note: 

Init E (V) = 0
Final E (V) = 1
Incr E (V) = 0.004
Amplitude (V) = 0.05
Pulse Width (sec) = 0.05
Sample Width (sec) = 0.0167
Pulse Period (sec) = 0.5
Quiet Time (sec) = 2
Sensitivity (A/V) = 0.01

Results:

Channel 1:
Ep = 0.512V
ip = 3.596e-5A
Ap = 5.069e-6VA

Potential/V, Current/A

0.004, 1.758e-5
0.008, 1.622e-5
0.012, 1.477e-5
0.016, 1.364e-5
0.020, 1.258e-5
0.024, 1.182e-5
0.028, 1.121e-5
0.032, 1.068e-5
0.036, 1.023e-5
0.040, 9.877e-6
0.044, 9.653e-6
0.048, 9.359e-6
0.052, 9.135e-6
0.056, 8.841e-6
0.060, 8.664e-6
0.064, 8.299e-6
0.068, 8.146e-6
0.072, 7.981e-6
0.076, 7.581e-6
0.080, 7.440e-6
0.084, 7.193e-6
0.088, 7.051e-6
0.092, 6.875e-6
0.096, 6.745e-6
0.100, 6.380e-6
0.104, 6.322e-6
0.108, 6.145e-6
0.112, 6.086e-6
0.116, 5.921e-6
0.120, 5.874e-6
0.124, 5.686e-6
0.128, 5.521e-6
0.132, 5.380e-6
0.136, 5.392e-6
0.140, 5.297e-6
0.144, 5.203e-6
0.148, 5.074e-6
0.152, 5.050e-6
0.156, 5.015e-6
0.160, 4.932e-6
0.164, 4.838e-6
0.168, 4.909e-6
0.172, 4.768e-6
0.176, 4.732e-6
0.180, 4.568e-6
0.184, 4.391e-6
0.188, 4.626e-6
0.192, 4.438e-6
0.196, 4.297e-6
0.200, 4.226e-6
0.204, 4.332e-6
0.208, 4.156e-6
0.212, 4.238e-6
0.216, 4.108e-6
0.220, 3.979e-6
0.224, 4.097e-6
0.228, 3.920e-6
0.232, 4.026e-6
0.236, 3.849e-6
0.240, 3.908e-6
0.244, 3.755e-6
0.248, 3.696e-6
0.252, 3.696e-6
0.256, 3.732e-6
0.260, 3.532e-6
0.264, 3.567e-6
0.268, 3.673e-6
0.272, 3.496e-6
0.276, 3.367e-6
0.280, 3.367e-6
0.284, 3.261e-6
0.288, 3.202e-6
0.292, 3.237e-6
0.296, 3.284e-6
0.300, 3.284e-6
0.304, 3.155e-6
0.308, 3.155e-6
0.312, 3.049e-6
0.316, 3.120e-6
0.320, 3.061e-6
0.324, 3.049e-6
0.328, 3.072e-6
0.332, 2.931e-6
0.336, 2.967e-6
0.340, 2.861e-6
0.344, 2.837e-6
0.348, 2.837e-6
0.352, 2.802e-6
0.356, 2.814e-6
0.360, 2.872e-6
0.364, 2.943e-6
0.368, 3.014e-6
0.372, 2.884e-6
0.376, 2.908e-6
0.380, 2.978e-6
0.384, 3.167e-6
0.388, 3.084e-6
0.392, 3.308e-6
0.396, 3.355e-6
0.400, 3.496e-6
0.404, 3.696e-6
0.408, 3.873e-6
0.412, 4.261e-6
0.416, 4.450e-6
0.420, 4.791e-6
0.424, 5.097e-6
0.428, 5.733e-6
0.432, 6.439e-6
0.436, 7.346e-6
0.440, 8.335e-6
0.444, 9.865e-6
0.448, 1.109e-5
0.452, 1.261e-5
0.456, 1.427e-5
0.460, 1.605e-5
0.464, 1.759e-5
0.468, 1.931e-5
0.472, 2.078e-5
0.476, 2.256e-5
0.480, 2.449e-5
0.484, 2.670e-5
0.488, 2.956e-5
0.492, 3.258e-5
0.496, 3.570e-5
0.500, 3.872e-5
0.504, 4.079e-5
0.508, 4.236e-5
0.512, 4.297e-5
0.516, 4.290e-5
0.520, 4.284e-5
0.524, 4.233e-5
0.528, 4.185e-5
0.532, 4.115e-5
0.536, 4.039e-5
0.540, 3.984e-5
0.544, 3.908e-5
0.548, 3.821e-5
0.552, 3.768e-5
0.556, 3.700e-5
0.560, 3.625e-5
0.564, 3.552e-5
0.568, 3.470e-5
0.572, 3.393e-5
0.576, 3.313e-5
0.580, 3.228e-5
0.584, 3.145e-5
0.588, 3.055e-5
0.592, 2.970e-5
0.596, 2.891e-5
0.600, 2.805e-5
0.604, 2.728e-5
0.608, 2.655e-5
0.612, 2.579e-5
0.616, 2.503e-5
0.620, 2.438e-5
0.624, 2.371e-5
0.628, 2.316e-5
0.632, 2.257e-5
0.636, 2.213e-5
0.640, 2.178e-5
0.644, 2.124e-5
0.648, 2.085e-5
0.652, 2.031e-5
0.656, 2.011e-5
0.660, 1.972e-5
0.664, 1.938e-5
0.668, 1.902e-5
0.672, 1.880e-5
0.676, 1.854e-5
0.680, 1.814e-5
0.684, 1.792e-5
0.688, 1.771e-5
0.692, 1.722e-5
0.696, 1.707e-5
0.700, 1.693e-5
0.704, 1.673e-5
0.708, 1.650e-5
0.712, 1.629e-5
0.716, 1.610e-5
0.720, 1.572e-5
0.724, 1.553e-5
0.728, 1.534e-5
0.732, 1.501e-5
0.736, 1.501e-5
0.740, 1.464e-5
0.744, 1.441e-5
0.748, 1.424e-5
0.752, 1.391e-5
0.756, 1.382e-5
0.760, 1.351e-5
0.764, 1.334e-5
0.768, 1.311e-5
0.772, 1.297e-5
0.776, 1.277e-5
0.780, 1.269e-5
0.784, 1.250e-5
0.788, 1.231e-5
0.792, 1.211e-5
0.796, 1.197e-5
0.800, 1.180e-5
0.804, 1.165e-5
0.808, 1.154e-5
0.812, 1.142e-5
0.816, 1.134e-5
0.820, 1.127e-5
0.824, 1.092e-5
0.828, 1.095e-5
0.832, 1.076e-5
0.836, 1.067e-5
0.840, 1.059e-5
0.844, 1.045e-5
0.848, 1.035e-5
0.852, 1.030e-5
0.856, 1.030e-5
0.860, 1.012e-5
0.864, 1.003e-5
0.868, 1.003e-5
0.872, 9.994e-6
0.876, 9.936e-6
0.880, 9.830e-6
0.884, 9.830e-6
0.888, 9.747e-6
0.892, 9.724e-6
0.896, 9.724e-6
0.900, 9.629e-6
0.904, 9.594e-6
0.908, 9.900e-6
0.912, 9.606e-6
0.916, 9.677e-6
0.920, 9.735e-6
0.924, 9.688e-6
0.928, 9.865e-6
0.932, 9.665e-6
0.936, 9.818e-6
0.940, 9.912e-6
0.944, 9.724e-6
0.948, 9.806e-6
0.952, 9.806e-6
0.956, 9.877e-6
0.960, 9.924e-6
0.964, 9.830e-6
0.968, 9.959e-6
0.972, 1.014e-5
0.976, 9.877e-6
0.980, 1.015e-5
0.984, 1.014e-5
0.988, 1.003e-5
0.992, 1.019e-5
0.996, 1.018e-5
1.000, 1.007e-5
