July 21, 2025   15:15:36
Differential Pulse Voltammetry
File: e:\Data Source:  Experiment
Instrument Model:  CHI620E
Header: 
Note: 

Init E (V) = 0
Final E (V) = 1
Incr E (V) = 0.004
Amplitude (V) = 0.05
Pulse Width (sec) = 0.05
Sample Width (sec) = 0.0167
Pulse Period (sec) = 0.5
Quiet Time (sec) = 2
Sensitivity (A/V) = 0.01

Results:

Channel 1:

Potential/V, Current/A

0.004, 1.221e-5
0.008, 1.121e-5
0.012, 1.050e-5
0.016, 1.007e-5
0.020, 9.641e-6
0.024, 9.288e-6
0.028, 9.088e-6
0.032, 9.006e-6
0.036, 8.782e-6
0.040, 8.617e-6
0.044, 8.664e-6
0.048, 8.299e-6
0.052, 8.170e-6
0.056, 7.946e-6
0.060, 7.805e-6
0.064, 7.628e-6
0.068, 7.393e-6
0.072, 7.087e-6
0.076, 6.957e-6
0.080, 6.592e-6
0.084, 6.463e-6
0.088, 6.110e-6
0.092, 5.945e-6
0.096, 5.674e-6
0.100, 5.356e-6
0.104, 5.262e-6
0.108, 4.932e-6
0.112, 4.850e-6
0.116, 4.709e-6
0.120, 4.356e-6
0.124, 4.273e-6
0.128, 4.132e-6
0.132, 3.685e-6
0.136, 3.720e-6
0.140, 3.579e-6
0.144, 3.402e-6
0.148, 3.367e-6
0.152, 3.237e-6
0.156, 2.908e-6
0.160, 2.896e-6
0.164, 3.014e-6
0.168, 2.778e-6
0.172, 2.778e-6
0.176, 2.825e-6
0.180, 2.496e-6
0.184, 2.590e-6
0.188, 2.413e-6
0.192, 2.566e-6
0.196, 2.272e-6
0.200, 2.237e-6
0.204, 2.284e-6
0.208, 2.131e-6
0.212, 2.072e-6
0.216, 1.978e-6
0.220, 2.072e-6
0.224, 2.072e-6
0.228, 1.907e-6
0.232, 2.060e-6
0.236, 1.989e-6
0.240, 1.884e-6
0.244, 1.931e-6
0.248, 1.813e-6
0.252, 1.789e-6
0.256, 1.884e-6
0.260, 1.683e-6
0.264, 1.766e-6
0.268, 1.825e-6
0.272, 1.754e-6
0.276, 1.683e-6
0.280, 1.613e-6
0.284, 1.566e-6
0.288, 1.613e-6
0.292, 1.601e-6
0.296, 1.577e-6
0.300, 1.719e-6
0.304, 1.601e-6
0.308, 1.730e-6
0.312, 1.530e-6
0.316, 1.460e-6
0.320, 1.695e-6
0.324, 1.554e-6
0.328, 1.507e-6
0.332, 1.507e-6
0.336, 1.507e-6
0.340, 1.448e-6
0.344, 1.530e-6
0.348, 1.625e-6
0.352, 1.554e-6
0.356, 1.507e-6
0.360, 1.483e-6
0.364, 1.766e-6
0.368, 1.648e-6
0.372, 1.636e-6
0.376, 1.530e-6
0.380, 1.707e-6
0.384, 1.507e-6
0.388, 1.495e-6
0.392, 1.648e-6
0.396, 1.566e-6
0.400, 1.566e-6
0.404, 1.436e-6
0.408, 1.424e-6
0.412, 1.519e-6
0.416, 1.460e-6
0.420, 1.295e-6
0.424, 1.389e-6
0.428, 1.460e-6
0.432, 1.342e-6
0.436, 1.413e-6
0.440, 1.389e-6
0.444, 1.495e-6
0.448, 1.354e-6
0.452, 1.342e-6
0.456, 1.377e-6
0.460, 1.413e-6
0.464, 1.389e-6
0.468, 1.295e-6
0.472, 1.283e-6
0.476, 1.318e-6
0.480, 1.460e-6
0.484, 1.283e-6
0.488, 1.330e-6
0.492, 1.318e-6
0.496, 1.507e-6
0.500, 1.424e-6
0.504, 1.283e-6
0.508, 1.377e-6
0.512, 1.424e-6
0.516, 1.295e-6
0.520, 1.377e-6
0.524, 1.295e-6
0.528, 1.330e-6
0.532, 1.471e-6
0.536, 1.342e-6
0.540, 1.460e-6
0.544, 1.354e-6
0.548, 1.271e-6
0.552, 1.495e-6
0.556, 1.436e-6
0.560, 1.460e-6
0.564, 1.471e-6
0.568, 1.389e-6
0.572, 1.448e-6
0.576, 1.483e-6
0.580, 1.554e-6
0.584, 1.625e-6
0.588, 1.672e-6
0.592, 1.719e-6
0.596, 1.954e-6
0.600, 1.907e-6
0.604, 2.025e-6
0.608, 2.084e-6
0.612, 2.307e-6
0.616, 2.613e-6
0.620, 2.507e-6
0.624, 2.837e-6
0.628, 2.978e-6
0.632, 3.379e-6
0.636, 3.920e-6
0.640, 4.379e-6
0.644, 5.050e-6
0.648, 5.910e-6
0.652, 6.981e-6
0.656, 8.535e-6
0.660, 1.034e-5
0.664, 1.275e-5
0.668, 1.619e-5
0.672, 2.052e-5
0.676, 2.617e-5
0.680, 3.442e-5
0.684, 4.338e-5
0.688, 5.153e-5
0.692, 5.928e-5
0.696, 6.672e-5
0.700, 7.422e-5
0.704, 8.046e-5
0.708, 8.326e-5
0.712, 8.197e-5
0.716, 7.802e-5
0.720, 7.483e-5
0.724, 7.392e-5
0.728, 7.455e-5
0.732, 7.591e-5
0.736, 7.804e-5
0.740, 8.069e-5
0.744, 8.355e-5
0.748, 8.664e-5
0.752, 8.990e-5
0.756, 9.358e-5
0.760, 9.698e-5
0.764, 1.007e-4
0.768, 1.041e-4
0.772, 1.072e-4
0.776, 1.103e-4
0.780, 1.131e-4
0.784, 1.153e-4
0.788, 1.170e-4
0.792, 1.183e-4
0.796, 1.191e-4
0.800, 1.195e-4
0.804, 1.190e-4
0.808, 1.182e-4
0.812, 1.170e-4
0.816, 1.150e-4
0.820, 1.130e-4
0.824, 1.102e-4
0.828, 1.076e-4
0.832, 1.048e-4
0.836, 1.019e-4
0.840, 9.925e-5
0.844, 9.662e-5
0.848, 9.383e-5
0.852, 9.137e-5
0.856, 8.911e-5
0.860, 8.689e-5
0.864, 8.479e-5
0.868, 8.280e-5
0.872, 8.089e-5
0.876, 7.908e-5
0.880, 7.737e-5
0.884, 7.567e-5
0.888, 7.392e-5
0.892, 7.204e-5
0.896, 7.042e-5
0.900, 6.861e-5
0.904, 6.683e-5
0.908, 6.502e-5
0.912, 6.307e-5
0.916, 6.120e-5
0.920, 5.917e-5
0.924, 5.727e-5
0.928, 5.521e-5
0.932, 5.300e-5
0.936, 5.113e-5
0.940, 4.902e-5
0.944, 4.706e-5
0.948, 4.506e-5
0.952, 4.318e-5
0.956, 4.137e-5
0.960, 3.973e-5
0.964, 3.787e-5
0.968, 3.638e-5
0.972, 3.481e-5
0.976, 3.327e-5
0.980, 3.208e-5
0.984, 3.084e-5
0.988, 2.971e-5
0.992, 2.856e-5
0.996, 2.743e-5
1.000, 2.648e-5
