July 11, 2025   17:32:31
Differential Pulse Voltammetry
File: e:\Data Source:  Experiment
Instrument Model:  CHI620E
Header: 
Note: 

Init E (V) = 0
Final E (V) = 1
Incr E (V) = 0.004
Amplitude (V) = 0.05
Pulse Width (sec) = 0.05
Sample Width (sec) = 0.0167
Pulse Period (sec) = 0.5
Quiet Time (sec) = 2
Sensitivity (A/V) = 0.01

Results:

Channel 1:
Ep = 0.364V
ip = 1.766e-7A
Ap = 3.142e-9VA

Ep = 0.744V
ip = 9.296e-6A
Ap = 3.456e-7VA

Potential/V, Current/A

0.004, 7.110e-6
0.008, 6.522e-6
0.012, 6.169e-6
0.016, 6.086e-6
0.020, 5.709e-6
0.024, 5.733e-6
0.028, 5.592e-6
0.032, 5.262e-6
0.036, 5.215e-6
0.040, 5.097e-6
0.044, 4.980e-6
0.048, 4.874e-6
0.052, 4.685e-6
0.056, 4.426e-6
0.060, 4.473e-6
0.064, 4.344e-6
0.068, 4.261e-6
0.072, 4.120e-6
0.076, 4.097e-6
0.080, 3.861e-6
0.084, 4.038e-6
0.088, 3.908e-6
0.092, 3.861e-6
0.096, 3.755e-6
0.100, 3.708e-6
0.104, 3.720e-6
0.108, 3.602e-6
0.112, 3.555e-6
0.116, 3.520e-6
0.120, 3.496e-6
0.124, 3.379e-6
0.128, 3.367e-6
0.132, 3.320e-6
0.136, 3.237e-6
0.140, 3.167e-6
0.144, 3.037e-6
0.148, 3.084e-6
0.152, 2.896e-6
0.156, 2.908e-6
0.160, 3.014e-6
0.164, 2.849e-6
0.168, 2.660e-6
0.172, 2.837e-6
0.176, 2.872e-6
0.180, 2.625e-6
0.184, 2.602e-6
0.188, 2.637e-6
0.192, 2.566e-6
0.196, 2.437e-6
0.200, 2.366e-6
0.204, 2.401e-6
0.208, 2.331e-6
0.212, 2.272e-6
0.216, 2.248e-6
0.220, 2.178e-6
0.224, 2.190e-6
0.228, 2.154e-6
0.232, 2.013e-6
0.236, 2.025e-6
0.240, 1.907e-6
0.244, 1.931e-6
0.248, 1.754e-6
0.252, 1.907e-6
0.256, 1.872e-6
0.260, 1.742e-6
0.264, 1.636e-6
0.268, 1.683e-6
0.272, 1.719e-6
0.276, 1.707e-6
0.280, 1.660e-6
0.284, 1.613e-6
0.288, 1.636e-6
0.292, 1.495e-6
0.296, 1.542e-6
0.300, 1.625e-6
0.304, 1.495e-6
0.308, 1.471e-6
0.312, 1.377e-6
0.316, 1.389e-6
0.320, 1.460e-6
0.324, 1.413e-6
0.328, 1.271e-6
0.332, 1.436e-6
0.336, 1.295e-6
0.340, 1.424e-6
0.344, 1.271e-6
0.348, 1.330e-6
0.352, 1.318e-6
0.356, 1.177e-6
0.360, 1.307e-6
0.364, 1.495e-6
0.368, 1.389e-6
0.372, 1.318e-6
0.376, 1.260e-6
0.380, 1.354e-6
0.384, 1.307e-6
0.388, 1.271e-6
0.392, 1.283e-6
0.396, 1.177e-6
0.400, 1.213e-6
0.404, 1.283e-6
0.408, 1.107e-6
0.412, 1.271e-6
0.416, 1.142e-6
0.420, 1.036e-6
0.424, 1.130e-6
0.428, 1.048e-6
0.432, 1.001e-6
0.436, 1.048e-6
0.440, 1.059e-6
0.444, 9.653e-7
0.448, 1.048e-6
0.452, 1.001e-6
0.456, 9.064e-7
0.460, 1.130e-6
0.464, 9.653e-7
0.468, 1.012e-6
0.472, 9.418e-7
0.476, 1.012e-6
0.480, 8.829e-7
0.484, 9.771e-7
0.488, 8.947e-7
0.492, 1.142e-6
0.496, 9.888e-7
0.500, 1.001e-6
0.504, 7.887e-7
0.508, 1.001e-6
0.512, 1.001e-6
0.516, 8.005e-7
0.520, 9.064e-7
0.524, 1.024e-6
0.528, 8.476e-7
0.532, 1.001e-6
0.536, 8.594e-7
0.540, 1.012e-6
0.544, 9.418e-7
0.548, 9.182e-7
0.552, 9.653e-7
0.556, 1.001e-6
0.560, 1.059e-6
0.564, 1.024e-6
0.568, 8.358e-7
0.572, 1.048e-6
0.576, 9.653e-7
0.580, 9.653e-7
0.584, 1.095e-6
0.588, 1.107e-6
0.592, 1.118e-6
0.596, 1.048e-6
0.600, 1.213e-6
0.604, 1.177e-6
0.608, 1.271e-6
0.612, 1.154e-6
0.616, 1.271e-6
0.620, 1.448e-6
0.624, 1.625e-6
0.628, 1.707e-6
0.632, 1.613e-6
0.636, 1.872e-6
0.640, 2.119e-6
0.644, 2.449e-6
0.648, 2.672e-6
0.652, 3.143e-6
0.656, 3.496e-6
0.660, 4.038e-6
0.664, 4.591e-6
0.668, 5.250e-6
0.672, 6.015e-6
0.676, 6.840e-6
0.680, 7.923e-6
0.684, 9.088e-6
0.688, 1.038e-5
0.692, 1.142e-5
0.696, 1.248e-5
0.700, 1.368e-5
0.704, 1.481e-5
0.708, 1.596e-5
0.712, 1.716e-5
0.716, 1.855e-5
0.720, 1.991e-5
0.724, 2.167e-5
0.728, 2.372e-5
0.732, 2.618e-5
0.736, 2.849e-5
0.740, 3.041e-5
0.744, 3.158e-5
0.748, 3.153e-5
0.752, 3.068e-5
0.756, 2.964e-5
0.760, 2.901e-5
0.764, 2.870e-5
0.768, 2.836e-5
0.772, 2.836e-5
0.776, 2.829e-5
0.780, 2.844e-5
0.784, 2.836e-5
0.788, 2.851e-5
0.792, 2.851e-5
0.796, 2.856e-5
0.800, 2.855e-5
0.804, 2.861e-5
0.808, 2.864e-5
0.812, 2.877e-5
0.816, 2.868e-5
0.820, 2.878e-5
0.824, 2.845e-5
0.828, 2.854e-5
0.832, 2.842e-5
0.836, 2.821e-5
0.840, 2.812e-5
0.844, 2.799e-5
0.848, 2.757e-5
0.852, 2.721e-5
0.856, 2.700e-5
0.860, 2.673e-5
0.864, 2.618e-5
0.868, 2.560e-5
0.872, 2.530e-5
0.876, 2.471e-5
0.880, 2.423e-5
0.884, 2.366e-5
0.888, 2.296e-5
0.892, 2.257e-5
0.896, 2.192e-5
0.900, 2.130e-5
0.904, 2.081e-5
0.908, 2.019e-5
0.912, 1.961e-5
0.916, 1.901e-5
0.920, 1.845e-5
0.924, 1.812e-5
0.928, 1.766e-5
0.932, 1.725e-5
0.936, 1.670e-5
0.940, 1.634e-5
0.944, 1.583e-5
0.948, 1.536e-5
0.952, 1.514e-5
0.956, 1.489e-5
0.960, 1.440e-5
0.964, 1.401e-5
0.968, 1.382e-5
0.972, 1.363e-5
0.976, 1.328e-5
0.980, 1.328e-5
0.984, 1.297e-5
0.988, 1.265e-5
0.992, 1.258e-5
0.996, 1.230e-5
1.000, 1.230e-5
