July 11, 2025   17:25:55
Differential Pulse Voltammetry
File: e:\Data Source:  Experiment
Instrument Model:  CHI620E
Header: 
Note: 

Init E (V) = 0
Final E (V) = 1
Incr E (V) = 0.004
Amplitude (V) = 0.05
Pulse Width (sec) = 0.05
Sample Width (sec) = 0.0167
Pulse Period (sec) = 0.5
Quiet Time (sec) = 2
Sensitivity (A/V) = 0.01

Results:

Channel 1:
Ep = 0.748V
ip = 1.169e-5A
Ap = 3.606e-7VA

Potential/V, Current/A

0.004, 4.721e-6
0.008, 4.414e-6
0.012, 4.085e-6
0.016, 3.814e-6
0.020, 3.661e-6
0.024, 3.602e-6
0.028, 3.473e-6
0.032, 3.308e-6
0.036, 3.178e-6
0.040, 3.025e-6
0.044, 2.908e-6
0.048, 2.861e-6
0.052, 2.731e-6
0.056, 2.637e-6
0.060, 2.660e-6
0.064, 2.543e-6
0.068, 2.684e-6
0.072, 2.425e-6
0.076, 2.507e-6
0.080, 2.437e-6
0.084, 2.260e-6
0.088, 2.343e-6
0.092, 2.284e-6
0.096, 2.107e-6
0.100, 2.201e-6
0.104, 2.131e-6
0.108, 2.213e-6
0.112, 2.072e-6
0.116, 2.001e-6
0.120, 1.978e-6
0.124, 1.942e-6
0.128, 2.084e-6
0.132, 1.801e-6
0.136, 1.825e-6
0.140, 1.931e-6
0.144, 1.813e-6
0.148, 1.825e-6
0.152, 1.836e-6
0.156, 1.730e-6
0.160, 1.825e-6
0.164, 1.801e-6
0.168, 1.801e-6
0.172, 1.683e-6
0.176, 1.636e-6
0.180, 1.613e-6
0.184, 1.554e-6
0.188, 1.554e-6
0.192, 1.554e-6
0.196, 1.519e-6
0.200, 1.672e-6
0.204, 1.495e-6
0.208, 1.778e-6
0.212, 1.471e-6
0.216, 1.460e-6
0.220, 1.601e-6
0.224, 1.483e-6
0.228, 1.307e-6
0.232, 1.436e-6
0.236, 1.236e-6
0.240, 1.307e-6
0.244, 1.354e-6
0.248, 1.189e-6
0.252, 1.436e-6
0.256, 1.236e-6
0.260, 1.130e-6
0.264, 1.165e-6
0.268, 1.224e-6
0.272, 1.083e-6
0.276, 1.201e-6
0.280, 1.071e-6
0.284, 1.107e-6
0.288, 1.165e-6
0.292, 1.142e-6
0.296, 1.071e-6
0.300, 1.271e-6
0.304, 1.095e-6
0.308, 9.535e-7
0.312, 9.771e-7
0.316, 1.001e-6
0.320, 9.653e-7
0.324, 9.653e-7
0.328, 9.653e-7
0.332, 1.024e-6
0.336, 9.653e-7
0.340, 9.771e-7
0.344, 8.829e-7
0.348, 9.300e-7
0.352, 9.182e-7
0.356, 9.418e-7
0.360, 1.012e-6
0.364, 1.024e-6
0.368, 1.071e-6
0.372, 8.829e-7
0.376, 9.653e-7
0.380, 1.036e-6
0.384, 1.036e-6
0.388, 9.418e-7
0.392, 9.300e-7
0.396, 9.182e-7
0.400, 9.064e-7
0.404, 7.887e-7
0.408, 8.476e-7
0.412, 1.001e-6
0.416, 8.358e-7
0.420, 7.063e-7
0.424, 7.299e-7
0.428, 8.358e-7
0.432, 8.005e-7
0.436, 7.652e-7
0.440, 8.711e-7
0.444, 8.123e-7
0.448, 8.240e-7
0.452, 6.592e-7
0.456, 8.123e-7
0.460, 7.063e-7
0.464, 7.416e-7
0.468, 7.887e-7
0.472, 7.887e-7
0.476, 7.770e-7
0.480, 7.181e-7
0.484, 7.534e-7
0.488, 8.358e-7
0.492, 8.240e-7
0.496, 8.240e-7
0.500, 8.240e-7
0.504, 6.004e-7
0.508, 7.181e-7
0.512, 6.828e-7
0.516, 6.357e-7
0.520, 7.181e-7
0.524, 8.123e-7
0.528, 6.828e-7
0.532, 6.357e-7
0.536, 6.710e-7
0.540, 7.652e-7
0.544, 6.710e-7
0.548, 6.357e-7
0.552, 8.005e-7
0.556, 7.181e-7
0.560, 7.181e-7
0.564, 7.887e-7
0.568, 6.121e-7
0.572, 8.829e-7
0.576, 8.123e-7
0.580, 7.416e-7
0.584, 6.945e-7
0.588, 8.829e-7
0.592, 7.534e-7
0.596, 7.416e-7
0.600, 6.945e-7
0.604, 7.887e-7
0.608, 8.240e-7
0.612, 8.123e-7
0.616, 8.829e-7
0.620, 8.594e-7
0.624, 8.123e-7
0.628, 8.594e-7
0.632, 8.594e-7
0.636, 1.001e-6
0.640, 1.012e-6
0.644, 9.535e-7
0.648, 1.130e-6
0.652, 1.154e-6
0.656, 1.318e-6
0.660, 1.413e-6
0.664, 1.436e-6
0.668, 1.766e-6
0.672, 2.001e-6
0.676, 2.178e-6
0.680, 2.637e-6
0.684, 3.131e-6
0.688, 3.967e-6
0.692, 4.909e-6
0.696, 5.957e-6
0.700, 7.146e-6
0.704, 7.970e-6
0.708, 8.582e-6
0.712, 9.500e-6
0.716, 1.064e-5
0.720, 1.183e-5
0.724, 1.363e-5
0.728, 1.594e-5
0.732, 1.935e-5
0.736, 2.359e-5
0.740, 2.797e-5
0.744, 3.111e-5
0.748, 3.193e-5
0.752, 3.078e-5
0.756, 2.918e-5
0.760, 2.802e-5
0.764, 2.721e-5
0.768, 2.689e-5
0.772, 2.689e-5
0.776, 2.679e-5
0.780, 2.702e-5
0.784, 2.704e-5
0.788, 2.745e-5
0.792, 2.733e-5
0.796, 2.762e-5
0.800, 2.781e-5
0.804, 2.788e-5
0.808, 2.798e-5
0.812, 2.823e-5
0.816, 2.838e-5
0.820, 2.835e-5
0.824, 2.834e-5
0.828, 2.852e-5
0.832, 2.854e-5
0.836, 2.841e-5
0.840, 2.838e-5
0.844, 2.839e-5
0.848, 2.823e-5
0.852, 2.792e-5
0.856, 2.783e-5
0.860, 2.759e-5
0.864, 2.724e-5
0.868, 2.685e-5
0.872, 2.656e-5
0.876, 2.616e-5
0.880, 2.562e-5
0.884, 2.503e-5
0.888, 2.452e-5
0.892, 2.411e-5
0.896, 2.341e-5
0.900, 2.270e-5
0.904, 2.227e-5
0.908, 2.179e-5
0.912, 2.114e-5
0.916, 2.059e-5
0.920, 2.002e-5
0.924, 1.958e-5
0.928, 1.893e-5
0.932, 1.843e-5
0.936, 1.792e-5
0.940, 1.746e-5
0.944, 1.708e-5
0.948, 1.667e-5
0.952, 1.619e-5
0.956, 1.600e-5
0.960, 1.548e-5
0.964, 1.504e-5
0.968, 1.476e-5
0.972, 1.457e-5
0.976, 1.427e-5
0.980, 1.413e-5
0.984, 1.383e-5
0.988, 1.361e-5
0.992, 1.335e-5
0.996, 1.313e-5
1.000, 1.304e-5
