July 14, 2025   11:10:50
Differential Pulse Voltammetry
File: e:\Data Source:  Experiment
Instrument Model:  CHI620E
Header: 
Note: 

Init E (V) = 0
Final E (V) = 1
Incr E (V) = 0.004
Amplitude (V) = 0.05
Pulse Width (sec) = 0.05
Sample Width (sec) = 0.0167
Pulse Period (sec) = 0.5
Quiet Time (sec) = 2
Sensitivity (A/V) = 0.01

Results:

Channel 1:
Ep = 0.768V
ip = 1.305e-5A
Ap = 6.431e-7VA

Potential/V, Current/A

0.004, 4.603e-6
0.008, 4.332e-6
0.012, 4.050e-6
0.016, 3.873e-6
0.020, 3.732e-6
0.024, 3.437e-6
0.028, 3.473e-6
0.032, 3.331e-6
0.036, 3.190e-6
0.040, 3.237e-6
0.044, 2.990e-6
0.048, 2.990e-6
0.052, 2.849e-6
0.056, 2.613e-6
0.060, 2.802e-6
0.064, 2.625e-6
0.068, 2.578e-6
0.072, 2.507e-6
0.076, 2.519e-6
0.080, 2.437e-6
0.084, 2.390e-6
0.088, 2.248e-6
0.092, 2.319e-6
0.096, 2.319e-6
0.100, 2.237e-6
0.104, 2.201e-6
0.108, 2.201e-6
0.112, 2.260e-6
0.116, 2.084e-6
0.120, 1.989e-6
0.124, 2.095e-6
0.128, 1.978e-6
0.132, 1.942e-6
0.136, 1.942e-6
0.140, 1.907e-6
0.144, 1.919e-6
0.148, 1.907e-6
0.152, 1.931e-6
0.156, 1.813e-6
0.160, 1.825e-6
0.164, 1.931e-6
0.168, 1.778e-6
0.172, 1.825e-6
0.176, 1.872e-6
0.180, 1.719e-6
0.184, 1.813e-6
0.188, 1.825e-6
0.192, 1.719e-6
0.196, 1.672e-6
0.200, 1.742e-6
0.204, 1.613e-6
0.208, 1.601e-6
0.212, 1.601e-6
0.216, 1.507e-6
0.220, 1.436e-6
0.224, 1.519e-6
0.228, 1.542e-6
0.232, 1.424e-6
0.236, 1.554e-6
0.240, 1.495e-6
0.244, 1.307e-6
0.248, 1.318e-6
0.252, 1.377e-6
0.256, 1.342e-6
0.260, 1.213e-6
0.264, 1.436e-6
0.268, 1.448e-6
0.272, 1.248e-6
0.276, 1.295e-6
0.280, 1.342e-6
0.284, 1.283e-6
0.288, 1.201e-6
0.292, 1.318e-6
0.296, 1.165e-6
0.300, 1.177e-6
0.304, 1.142e-6
0.308, 1.071e-6
0.312, 1.048e-6
0.316, 1.189e-6
0.320, 1.165e-6
0.324, 9.888e-7
0.328, 1.130e-6
0.332, 1.248e-6
0.336, 1.083e-6
0.340, 1.059e-6
0.344, 1.095e-6
0.348, 1.048e-6
0.352, 1.012e-6
0.356, 1.048e-6
0.360, 1.154e-6
0.364, 1.189e-6
0.368, 1.048e-6
0.372, 1.201e-6
0.376, 1.059e-6
0.380, 1.177e-6
0.384, 1.130e-6
0.388, 1.071e-6
0.392, 1.024e-6
0.396, 1.165e-6
0.400, 1.142e-6
0.404, 1.012e-6
0.408, 1.130e-6
0.412, 1.107e-6
0.416, 1.107e-6
0.420, 8.947e-7
0.424, 9.418e-7
0.428, 9.535e-7
0.432, 9.771e-7
0.436, 9.182e-7
0.440, 9.888e-7
0.444, 9.535e-7
0.448, 1.036e-6
0.452, 9.418e-7
0.456, 9.771e-7
0.460, 8.947e-7
0.464, 9.300e-7
0.468, 1.036e-6
0.472, 9.653e-7
0.476, 9.535e-7
0.480, 9.888e-7
0.484, 1.048e-6
0.488, 9.418e-7
0.492, 9.535e-7
0.496, 1.001e-6
0.500, 9.064e-7
0.504, 8.947e-7
0.508, 1.012e-6
0.512, 8.358e-7
0.516, 8.594e-7
0.520, 8.947e-7
0.524, 1.001e-6
0.528, 8.240e-7
0.532, 9.771e-7
0.536, 7.534e-7
0.540, 8.594e-7
0.544, 8.594e-7
0.548, 8.593e-7
0.552, 7.299e-7
0.556, 9.300e-7
0.560, 1.012e-6
0.564, 6.828e-7
0.568, 7.534e-7
0.572, 8.358e-7
0.576, 8.594e-7
0.580, 8.358e-7
0.584, 9.653e-7
0.588, 8.947e-7
0.592, 8.476e-7
0.596, 8.358e-7
0.600, 7.534e-7
0.604, 8.240e-7
0.608, 7.416e-7
0.612, 8.947e-7
0.616, 7.770e-7
0.620, 8.829e-7
0.624, 7.299e-7
0.628, 7.534e-7
0.632, 7.299e-7
0.636, 7.652e-7
0.640, 7.652e-7
0.644, 7.770e-7
0.648, 8.829e-7
0.652, 7.770e-7
0.656, 9.182e-7
0.660, 9.300e-7
0.664, 1.036e-6
0.668, 9.771e-7
0.672, 1.071e-6
0.676, 1.165e-6
0.680, 1.342e-6
0.684, 1.495e-6
0.688, 1.672e-6
0.692, 2.048e-6
0.696, 2.343e-6
0.700, 2.978e-6
0.704, 3.496e-6
0.708, 4.179e-6
0.712, 5.203e-6
0.716, 6.510e-6
0.720, 8.205e-6
0.724, 9.888e-6
0.728, 1.200e-5
0.732, 1.430e-5
0.736, 1.694e-5
0.740, 1.985e-5
0.744, 2.288e-5
0.748, 2.599e-5
0.752, 2.877e-5
0.756, 3.121e-5
0.760, 3.295e-5
0.764, 3.394e-5
0.768, 3.399e-5
0.772, 3.339e-5
0.776, 3.280e-5
0.780, 3.214e-5
0.784, 3.155e-5
0.788, 3.107e-5
0.792, 3.082e-5
0.796, 3.074e-5
0.800, 3.065e-5
0.804, 3.056e-5
0.808, 3.050e-5
0.812, 3.054e-5
0.816, 3.055e-5
0.820, 3.057e-5
0.824, 3.034e-5
0.828, 3.040e-5
0.832, 3.044e-5
0.836, 3.032e-5
0.840, 3.022e-5
0.844, 3.008e-5
0.848, 2.987e-5
0.852, 2.957e-5
0.856, 2.938e-5
0.860, 2.892e-5
0.864, 2.848e-5
0.868, 2.823e-5
0.872, 2.762e-5
0.876, 2.713e-5
0.880, 2.670e-5
0.884, 2.603e-5
0.888, 2.533e-5
0.892, 2.494e-5
0.896, 2.432e-5
0.900, 2.339e-5
0.904, 2.278e-5
0.908, 2.233e-5
0.912, 2.166e-5
0.916, 2.095e-5
0.920, 2.041e-5
0.924, 1.985e-5
0.928, 1.932e-5
0.932, 1.874e-5
0.936, 1.833e-5
0.940, 1.766e-5
0.944, 1.729e-5
0.948, 1.693e-5
0.952, 1.637e-5
0.956, 1.617e-5
0.960, 1.572e-5
0.964, 1.533e-5
0.968, 1.490e-5
0.972, 1.486e-5
0.976, 1.450e-5
0.980, 1.421e-5
0.984, 1.406e-5
0.988, 1.378e-5
0.992, 1.361e-5
0.996, 1.334e-5
1.000, 1.316e-5
