July 23, 2025   19:59:05
Differential Pulse Voltammetry
File: e:\Data Source:  Experiment
Instrument Model:  CHI620E
Header: 
Note: 

Init E (V) = 0
Final E (V) = 1
Incr E (V) = 0.004
Amplitude (V) = 0.05
Pulse Width (sec) = 0.05
Sample Width (sec) = 0.0167
Pulse Period (sec) = 0.5
Quiet Time (sec) = 2
Sensitivity (A/V) = 0.01

Results:

Channel 1:
Ep = 0.160V
ip = 3.511e-7A
Ap = 2.587e-8VA

Ep = 0.560V
ip = 3.254e-5A
Ap = 3.492e-6VA

Potential/V, Current/A

0.004, 1.283e-6
0.008, 1.342e-6
0.012, 1.295e-6
0.016, 1.307e-6
0.020, 1.154e-6
0.024, 1.248e-6
0.028, 1.142e-6
0.032, 1.342e-6
0.036, 1.236e-6
0.040, 1.248e-6
0.044, 1.271e-6
0.048, 1.271e-6
0.052, 1.248e-6
0.056, 1.083e-6
0.060, 1.283e-6
0.064, 1.224e-6
0.068, 1.165e-6
0.072, 1.213e-6
0.076, 1.177e-6
0.080, 1.330e-6
0.084, 1.295e-6
0.088, 1.236e-6
0.092, 1.142e-6
0.096, 1.248e-6
0.100, 1.201e-6
0.104, 1.342e-6
0.108, 1.283e-6
0.112, 1.342e-6
0.116, 1.354e-6
0.120, 1.330e-6
0.124, 1.448e-6
0.128, 1.483e-6
0.132, 1.342e-6
0.136, 1.495e-6
0.140, 1.342e-6
0.144, 1.354e-6
0.148, 1.471e-6
0.152, 1.460e-6
0.156, 1.566e-6
0.160, 1.589e-6
0.164, 1.413e-6
0.168, 1.566e-6
0.172, 1.507e-6
0.176, 1.460e-6
0.180, 1.471e-6
0.184, 1.330e-6
0.188, 1.460e-6
0.192, 1.330e-6
0.196, 1.413e-6
0.200, 1.471e-6
0.204, 1.436e-6
0.208, 1.342e-6
0.212, 1.354e-6
0.216, 1.354e-6
0.220, 1.330e-6
0.224, 1.354e-6
0.228, 1.377e-6
0.232, 1.260e-6
0.236, 1.283e-6
0.240, 1.271e-6
0.244, 1.142e-6
0.248, 1.307e-6
0.252, 1.201e-6
0.256, 1.142e-6
0.260, 1.189e-6
0.264, 1.118e-6
0.268, 1.177e-6
0.272, 1.189e-6
0.276, 1.224e-6
0.280, 1.177e-6
0.284, 1.307e-6
0.288, 1.201e-6
0.292, 1.189e-6
0.296, 1.213e-6
0.300, 1.248e-6
0.304, 1.295e-6
0.308, 1.283e-6
0.312, 1.165e-6
0.316, 1.177e-6
0.320, 1.224e-6
0.324, 1.130e-6
0.328, 1.142e-6
0.332, 1.307e-6
0.336, 1.248e-6
0.340, 1.213e-6
0.344, 1.307e-6
0.348, 1.354e-6
0.352, 1.271e-6
0.356, 1.236e-6
0.360, 1.224e-6
0.364, 1.436e-6
0.368, 1.283e-6
0.372, 1.342e-6
0.376, 1.507e-6
0.380, 1.389e-6
0.384, 1.342e-6
0.388, 1.377e-6
0.392, 1.436e-6
0.396, 1.448e-6
0.400, 1.577e-6
0.404, 1.483e-6
0.408, 1.483e-6
0.412, 1.377e-6
0.416, 1.530e-6
0.420, 1.389e-6
0.424, 1.436e-6
0.428, 1.554e-6
0.432, 1.613e-6
0.436, 1.507e-6
0.440, 1.424e-6
0.444, 1.648e-6
0.448, 1.577e-6
0.452, 1.519e-6
0.456, 1.413e-6
0.460, 1.495e-6
0.464, 1.601e-6
0.468, 1.801e-6
0.472, 1.648e-6
0.476, 1.730e-6
0.480, 2.237e-6
0.484, 2.555e-6
0.488, 3.131e-6
0.492, 4.697e-6
0.496, 6.216e-6
0.500, 7.463e-6
0.504, 7.981e-6
0.508, 8.205e-6
0.512, 8.111e-6
0.516, 8.252e-6
0.520, 8.723e-6
0.524, 9.359e-6
0.528, 1.016e-5
0.532, 1.177e-5
0.536, 1.390e-5
0.540, 1.808e-5
0.544, 2.450e-5
0.548, 3.111e-5
0.552, 3.536e-5
0.556, 3.726e-5
0.560, 3.802e-5
0.564, 3.767e-5
0.568, 3.719e-5
0.572, 3.621e-5
0.576, 3.532e-5
0.580, 3.434e-5
0.584, 3.326e-5
0.588, 3.237e-5
0.592, 3.133e-5
0.596, 3.028e-5
0.600, 2.939e-5
0.604, 2.846e-5
0.608, 2.783e-5
0.612, 2.699e-5
0.616, 2.625e-5
0.620, 2.552e-5
0.624, 2.487e-5
0.628, 2.424e-5
0.632, 2.377e-5
0.636, 2.316e-5
0.640, 2.264e-5
0.644, 2.183e-5
0.648, 2.157e-5
0.652, 2.107e-5
0.656, 2.074e-5
0.660, 2.011e-5
0.664, 1.968e-5
0.668, 1.951e-5
0.672, 1.918e-5
0.676, 1.886e-5
0.680, 1.851e-5
0.684, 1.833e-5
0.688, 1.795e-5
0.692, 1.774e-5
0.696, 1.747e-5
0.700, 1.722e-5
0.704, 1.693e-5
0.708, 1.666e-5
0.712, 1.656e-5
0.716, 1.653e-5
0.720, 1.615e-5
0.724, 1.600e-5
0.728, 1.577e-5
0.732, 1.566e-5
0.736, 1.554e-5
0.740, 1.532e-5
0.744, 1.513e-5
0.748, 1.503e-5
0.752, 1.489e-5
0.756, 1.484e-5
0.760, 1.454e-5
0.764, 1.447e-5
0.768, 1.454e-5
0.772, 1.409e-5
0.776, 1.414e-5
0.780, 1.413e-5
0.784, 1.390e-5
0.788, 1.387e-5
0.792, 1.361e-5
0.796, 1.349e-5
0.800, 1.350e-5
0.804, 1.334e-5
0.808, 1.313e-5
0.812, 1.314e-5
0.816, 1.310e-5
0.820, 1.273e-5
0.824, 1.245e-5
0.828, 1.251e-5
0.832, 1.245e-5
0.836, 1.227e-5
0.840, 1.222e-5
0.844, 1.214e-5
0.848, 1.200e-5
0.852, 1.208e-5
0.856, 1.178e-5
0.860, 1.182e-5
0.864, 1.169e-5
0.868, 1.176e-5
0.872, 1.161e-5
0.876, 1.160e-5
0.880, 1.152e-5
0.884, 1.150e-5
0.888, 1.150e-5
0.892, 1.162e-5
0.896, 1.149e-5
0.900, 1.127e-5
0.904, 1.137e-5
0.908, 1.155e-5
0.912, 1.135e-5
0.916, 1.138e-5
0.920, 1.135e-5
0.924, 1.161e-5
0.928, 1.143e-5
0.932, 1.143e-5
0.936, 1.138e-5
0.940, 1.138e-5
0.944, 1.128e-5
0.948, 1.147e-5
0.952, 1.140e-5
0.956, 1.150e-5
0.960, 1.134e-5
0.964, 1.149e-5
0.968, 1.134e-5
0.972, 1.143e-5
0.976, 1.151e-5
0.980, 1.154e-5
0.984, 1.148e-5
0.988, 1.165e-5
0.992, 1.156e-5
0.996, 1.160e-5
1.000, 1.169e-5
