July 25, 2025   11:32:27
Differential Pulse Voltammetry
File: e:\Data Source:  Experiment
Instrument Model:  CHI620E
Header: 
Note: 

Init E (V) = 0
Final E (V) = 1
Incr E (V) = 0.004
Amplitude (V) = 0.05
Pulse Width (sec) = 0.05
Sample Width (sec) = 0.0167
Pulse Period (sec) = 0.5
Quiet Time (sec) = 2
Sensitivity (A/V) = 0.01

Results:

Channel 1:
Ep = 0.508V
ip = 1.015e-5A
Ap = 9.708e-7VA

Potential/V, Current/A

0.004, 1.042e-5
0.008, 1.031e-5
0.012, 1.010e-5
0.016, 9.947e-6
0.020, 9.582e-6
0.024, 9.594e-6
0.028, 9.276e-6
0.032, 8.947e-6
0.036, 8.911e-6
0.040, 8.805e-6
0.044, 8.393e-6
0.048, 8.299e-6
0.052, 8.158e-6
0.056, 7.970e-6
0.060, 7.769e-6
0.064, 7.769e-6
0.068, 7.593e-6
0.072, 7.405e-6
0.076, 7.310e-6
0.080, 7.051e-6
0.084, 6.945e-6
0.088, 6.781e-6
0.092, 6.698e-6
0.096, 6.592e-6
0.100, 6.274e-6
0.104, 6.239e-6
0.108, 6.216e-6
0.112, 5.780e-6
0.116, 5.815e-6
0.120, 5.651e-6
0.124, 5.756e-6
0.128, 5.627e-6
0.132, 5.274e-6
0.136, 5.239e-6
0.140, 5.085e-6
0.144, 5.250e-6
0.148, 5.003e-6
0.152, 4.921e-6
0.156, 4.897e-6
0.160, 4.803e-6
0.164, 4.721e-6
0.168, 4.768e-6
0.172, 4.897e-6
0.176, 4.603e-6
0.180, 4.638e-6
0.184, 4.520e-6
0.188, 4.485e-6
0.192, 4.426e-6
0.196, 4.285e-6
0.200, 4.344e-6
0.204, 4.450e-6
0.208, 4.309e-6
0.212, 4.179e-6
0.216, 4.167e-6
0.220, 4.226e-6
0.224, 4.156e-6
0.228, 4.097e-6
0.232, 4.238e-6
0.236, 4.132e-6
0.240, 3.955e-6
0.244, 3.814e-6
0.248, 3.885e-6
0.252, 4.050e-6
0.256, 4.014e-6
0.260, 3.685e-6
0.264, 3.991e-6
0.268, 3.838e-6
0.272, 3.885e-6
0.276, 3.791e-6
0.280, 3.779e-6
0.284, 3.826e-6
0.288, 3.826e-6
0.292, 3.779e-6
0.296, 3.873e-6
0.300, 3.685e-6
0.304, 3.590e-6
0.308, 3.579e-6
0.312, 3.473e-6
0.316, 3.732e-6
0.320, 3.661e-6
0.324, 3.626e-6
0.328, 3.567e-6
0.332, 3.720e-6
0.336, 3.579e-6
0.340, 3.673e-6
0.344, 3.685e-6
0.348, 3.555e-6
0.352, 3.708e-6
0.356, 3.638e-6
0.360, 3.685e-6
0.364, 3.802e-6
0.368, 3.767e-6
0.372, 3.779e-6
0.376, 3.649e-6
0.380, 3.849e-6
0.384, 3.791e-6
0.388, 3.743e-6
0.392, 3.967e-6
0.396, 4.120e-6
0.400, 4.285e-6
0.404, 4.320e-6
0.408, 4.450e-6
0.412, 4.485e-6
0.416, 4.932e-6
0.420, 4.827e-6
0.424, 5.321e-6
0.428, 5.721e-6
0.432, 5.709e-6
0.436, 6.157e-6
0.440, 6.922e-6
0.444, 6.887e-6
0.448, 8.064e-6
0.452, 8.123e-6
0.456, 8.888e-6
0.460, 9.865e-6
0.464, 1.047e-5
0.468, 1.102e-5
0.472, 1.209e-5
0.476, 1.281e-5
0.480, 1.361e-5
0.484, 1.463e-5
0.488, 1.540e-5
0.492, 1.594e-5
0.496, 1.685e-5
0.500, 1.701e-5
0.504, 1.745e-5
0.508, 1.843e-5
0.512, 1.812e-5
0.516, 1.805e-5
0.520, 1.819e-5
0.524, 1.785e-5
0.528, 1.814e-5
0.532, 1.738e-5
0.536, 1.736e-5
0.540, 1.715e-5
0.544, 1.640e-5
0.548, 1.641e-5
0.552, 1.585e-5
0.556, 1.507e-5
0.560, 1.524e-5
0.564, 1.496e-5
0.568, 1.424e-5
0.572, 1.440e-5
0.576, 1.393e-5
0.580, 1.390e-5
0.584, 1.358e-5
0.588, 1.331e-5
0.592, 1.320e-5
0.596, 1.311e-5
0.600, 1.302e-5
0.604, 1.322e-5
0.608, 1.301e-5
0.612, 1.271e-5
0.616, 1.263e-5
0.620, 1.284e-5
0.624, 1.254e-5
0.628, 1.222e-5
0.632, 1.227e-5
0.636, 1.235e-5
0.640, 1.233e-5
0.644, 1.189e-5
0.648, 1.228e-5
0.652, 1.187e-5
0.656, 1.233e-5
0.660, 1.174e-5
0.664, 1.218e-5
0.668, 1.181e-5
0.672, 1.198e-5
0.676, 1.151e-5
0.680, 1.178e-5
0.684, 1.167e-5
0.688, 1.127e-5
0.692, 1.141e-5
0.696, 1.130e-5
0.700, 1.116e-5
0.704, 1.129e-5
0.708, 1.081e-5
0.712, 1.094e-5
0.716, 1.088e-5
0.720, 1.056e-5
0.724, 1.070e-5
0.728, 1.059e-5
0.732, 1.039e-5
0.736, 1.055e-5
0.740, 1.023e-5
0.744, 1.005e-5
0.748, 1.008e-5
0.752, 1.022e-5
0.756, 9.830e-6
0.760, 9.912e-6
0.764, 9.853e-6
0.768, 9.582e-6
0.772, 9.641e-6
0.776, 9.806e-6
0.780, 9.947e-6
0.784, 9.547e-6
0.788, 9.712e-6
0.792, 9.476e-6
0.796, 9.347e-6
0.800, 9.441e-6
0.804, 9.276e-6
0.808, 9.347e-6
0.812, 9.194e-6
0.816, 9.535e-6
0.820, 9.288e-6
0.824, 9.382e-6
0.828, 9.323e-6
0.832, 9.429e-6
0.836, 9.382e-6
0.840, 9.465e-6
0.844, 9.347e-6
0.848, 9.747e-6
0.852, 9.594e-6
0.856, 9.418e-6
0.860, 9.841e-6
0.864, 9.865e-6
0.868, 9.818e-6
0.872, 9.994e-6
0.876, 9.783e-6
0.880, 9.806e-6
0.884, 1.003e-5
0.888, 1.005e-5
0.892, 1.012e-5
0.896, 1.016e-5
0.900, 9.841e-6
0.904, 9.983e-6
0.908, 1.018e-5
0.912, 9.724e-6
0.916, 9.900e-6
0.920, 1.021e-5
0.924, 1.001e-5
0.928, 1.025e-5
0.932, 1.032e-5
0.936, 1.024e-5
0.940, 1.014e-5
0.944, 1.042e-5
0.948, 1.054e-5
0.952, 1.035e-5
0.956, 1.079e-5
0.960, 1.117e-5
0.964, 1.077e-5
0.968, 1.131e-5
0.972, 1.144e-5
0.976, 1.136e-5
0.980, 1.188e-5
0.984, 1.224e-5
0.988, 1.254e-5
0.992, 1.297e-5
0.996, 1.294e-5
1.000, 1.391e-5
