July 22, 2025   15:54:15
Differential Pulse Voltammetry
File: e:\Data Source:  Experiment
Instrument Model:  CHI620E
Header: 
Note: 

Init E (V) = 0
Final E (V) = 1
Incr E (V) = 0.004
Amplitude (V) = 0.05
Pulse Width (sec) = 0.05
Sample Width (sec) = 0.0167
Pulse Period (sec) = 0.5
Quiet Time (sec) = 2
Sensitivity (A/V) = 0.01

Results:

Channel 1:
Ep = 0.200V
ip = 2.545e-6A
Ap = 3.719e-7VA

Ep = 0.700V
ip = 5.005e-5A
Ap = 3.149e-6VA

Potential/V, Current/A

0.004, 1.391e-5
0.008, 1.282e-5
0.012, 1.222e-5
0.016, 1.155e-5
0.020, 1.114e-5
0.024, 1.051e-5
0.028, 1.037e-5
0.032, 1.032e-5
0.036, 1.031e-5
0.040, 1.017e-5
0.044, 9.912e-6
0.048, 9.618e-6
0.052, 9.476e-6
0.056, 9.217e-6
0.060, 9.217e-6
0.064, 9.006e-6
0.068, 8.935e-6
0.072, 8.829e-6
0.076, 8.664e-6
0.080, 8.770e-6
0.084, 8.688e-6
0.088, 8.794e-6
0.092, 8.676e-6
0.096, 8.876e-6
0.100, 8.711e-6
0.104, 8.841e-6
0.108, 8.958e-6
0.112, 8.947e-6
0.116, 9.112e-6
0.120, 9.076e-6
0.124, 9.135e-6
0.128, 9.359e-6
0.132, 9.347e-6
0.136, 9.524e-6
0.140, 9.629e-6
0.144, 9.759e-6
0.148, 9.724e-6
0.152, 9.806e-6
0.156, 9.994e-6
0.160, 1.022e-5
0.164, 1.016e-5
0.168, 1.031e-5
0.172, 1.048e-5
0.176, 1.034e-5
0.180, 1.058e-5
0.184, 1.048e-5
0.188, 1.065e-5
0.192, 1.068e-5
0.196, 1.063e-5
0.200, 1.077e-5
0.204, 1.068e-5
0.208, 1.072e-5
0.212, 1.056e-5
0.216, 1.036e-5
0.220, 1.044e-5
0.224, 1.045e-5
0.228, 1.029e-5
0.232, 1.024e-5
0.236, 1.022e-5
0.240, 1.012e-5
0.244, 1.004e-5
0.248, 9.994e-6
0.252, 9.865e-6
0.256, 9.818e-6
0.260, 9.688e-6
0.264, 9.653e-6
0.268, 9.512e-6
0.272, 9.559e-6
0.276, 9.312e-6
0.280, 9.135e-6
0.284, 9.206e-6
0.288, 9.159e-6
0.292, 8.853e-6
0.296, 8.853e-6
0.300, 8.853e-6
0.304, 8.664e-6
0.308, 8.558e-6
0.312, 8.499e-6
0.316, 8.546e-6
0.320, 8.346e-6
0.324, 8.252e-6
0.328, 8.323e-6
0.332, 8.240e-6
0.336, 8.134e-6
0.340, 8.017e-6
0.344, 7.970e-6
0.348, 7.981e-6
0.352, 7.993e-6
0.356, 7.840e-6
0.360, 7.805e-6
0.364, 7.664e-6
0.368, 7.675e-6
0.372, 7.675e-6
0.376, 7.546e-6
0.380, 7.522e-6
0.384, 7.522e-6
0.388, 7.228e-6
0.392, 7.381e-6
0.396, 7.252e-6
0.400, 7.275e-6
0.404, 7.193e-6
0.408, 7.252e-6
0.412, 7.075e-6
0.416, 7.087e-6
0.420, 6.957e-6
0.424, 6.934e-6
0.428, 6.804e-6
0.432, 6.816e-6
0.436, 6.804e-6
0.440, 6.663e-6
0.444, 6.769e-6
0.448, 6.545e-6
0.452, 6.545e-6
0.456, 6.522e-6
0.460, 6.533e-6
0.464, 6.404e-6
0.468, 6.392e-6
0.472, 6.404e-6
0.476, 6.298e-6
0.480, 6.298e-6
0.484, 6.192e-6
0.488, 6.192e-6
0.492, 6.204e-6
0.496, 6.110e-6
0.500, 5.945e-6
0.504, 5.980e-6
0.508, 5.933e-6
0.512, 5.957e-6
0.516, 5.733e-6
0.520, 5.910e-6
0.524, 5.910e-6
0.528, 5.957e-6
0.532, 5.686e-6
0.536, 5.745e-6
0.540, 5.839e-6
0.544, 5.745e-6
0.548, 5.851e-6
0.552, 5.839e-6
0.556, 5.886e-6
0.560, 5.980e-6
0.564, 6.027e-6
0.568, 6.110e-6
0.572, 6.251e-6
0.576, 6.475e-6
0.580, 6.663e-6
0.584, 6.875e-6
0.588, 7.369e-6
0.592, 7.746e-6
0.596, 8.276e-6
0.600, 8.841e-6
0.604, 9.877e-6
0.608, 1.075e-5
0.612, 1.194e-5
0.616, 1.347e-5
0.620, 1.528e-5
0.624, 1.754e-5
0.628, 2.029e-5
0.632, 2.369e-5
0.636, 2.796e-5
0.640, 3.380e-5
0.644, 4.104e-5
0.648, 4.991e-5
0.652, 6.010e-5
0.656, 7.067e-5
0.660, 8.230e-5
0.664, 9.433e-5
0.668, 1.074e-4
0.672, 1.203e-4
0.676, 1.322e-4
0.680, 1.420e-4
0.684, 1.476e-4
0.688, 1.495e-4
0.692, 1.501e-4
0.696, 1.504e-4
0.700, 1.505e-4
0.704, 1.504e-4
0.708, 1.498e-4
0.712, 1.486e-4
0.716, 1.468e-4
0.720, 1.452e-4
0.724, 1.434e-4
0.728, 1.418e-4
0.732, 1.406e-4
0.736, 1.394e-4
0.740, 1.384e-4
0.744, 1.379e-4
0.748, 1.376e-4
0.752, 1.372e-4
0.756, 1.372e-4
0.760, 1.369e-4
0.764, 1.368e-4
0.768, 1.364e-4
0.772, 1.359e-4
0.776, 1.354e-4
0.780, 1.347e-4
0.784, 1.336e-4
0.788, 1.324e-4
0.792, 1.309e-4
0.796, 1.296e-4
0.800, 1.280e-4
0.804, 1.264e-4
0.808, 1.249e-4
0.812, 1.235e-4
0.816, 1.222e-4
0.820, 1.210e-4
0.824, 1.196e-4
0.828, 1.189e-4
0.832, 1.179e-4
0.836, 1.173e-4
0.840, 1.167e-4
0.844, 1.159e-4
0.848, 1.154e-4
0.852, 1.148e-4
0.856, 1.142e-4
0.860, 1.135e-4
0.864, 1.127e-4
0.868, 1.114e-4
0.872, 1.105e-4
0.876, 1.093e-4
0.880, 1.078e-4
0.884, 1.060e-4
0.888, 1.043e-4
0.892, 1.023e-4
0.896, 1.001e-4
0.900, 9.790e-5
0.904, 9.565e-5
0.908, 9.321e-5
0.912, 9.056e-5
0.916, 8.803e-5
0.920, 8.545e-5
0.924, 8.290e-5
0.928, 8.048e-5
0.932, 7.792e-5
0.936, 7.545e-5
0.940, 7.316e-5
0.944, 7.087e-5
0.948, 6.855e-5
0.952, 6.625e-5
0.956, 6.432e-5
0.960, 6.201e-5
0.964, 5.971e-5
0.968, 5.764e-5
0.972, 5.552e-5
0.976, 5.329e-5
0.980, 5.113e-5
0.984, 4.912e-5
0.988, 4.698e-5
0.992, 4.503e-5
0.996, 4.291e-5
1.000, 4.106e-5
