July 22, 2025   16:03:40
Differential Pulse Voltammetry
File: e:\Data Source:  Experiment
Instrument Model:  CHI620E
Header: 
Note: 

Init E (V) = 0
Final E (V) = 1
Incr E (V) = 0.004
Amplitude (V) = 0.05
Pulse Width (sec) = 0.05
Sample Width (sec) = 0.0167
Pulse Period (sec) = 0.5
Quiet Time (sec) = 2
Sensitivity (A/V) = 0.01

Results:

Channel 1:
Ep = 0.208V
ip = 3.296e-6A
Ap = 5.041e-7VA

Ep = 0.684V
ip = 7.016e-5A
Ap = 3.422e-6VA

Potential/V, Current/A

0.004, 1.460e-5
0.008, 1.362e-5
0.012, 1.285e-5
0.016, 1.203e-5
0.020, 1.155e-5
0.024, 1.090e-5
0.028, 1.087e-5
0.032, 1.068e-5
0.036, 1.069e-5
0.040, 1.052e-5
0.044, 1.029e-5
0.048, 1.003e-5
0.052, 9.712e-6
0.056, 9.571e-6
0.060, 9.571e-6
0.064, 9.406e-6
0.068, 9.359e-6
0.072, 9.335e-6
0.076, 9.359e-6
0.080, 9.194e-6
0.084, 9.253e-6
0.088, 9.217e-6
0.092, 9.276e-6
0.096, 9.453e-6
0.100, 9.370e-6
0.104, 9.512e-6
0.108, 9.653e-6
0.112, 9.712e-6
0.116, 9.806e-6
0.120, 9.853e-6
0.124, 1.005e-5
0.128, 1.014e-5
0.132, 1.017e-5
0.136, 1.028e-5
0.140, 1.045e-5
0.144, 1.061e-5
0.148, 1.056e-5
0.152, 1.083e-5
0.156, 1.092e-5
0.160, 1.108e-5
0.164, 1.114e-5
0.168, 1.121e-5
0.172, 1.124e-5
0.176, 1.155e-5
0.180, 1.136e-5
0.184, 1.154e-5
0.188, 1.164e-5
0.192, 1.164e-5
0.196, 1.160e-5
0.200, 1.165e-5
0.204, 1.169e-5
0.208, 1.182e-5
0.212, 1.149e-5
0.216, 1.152e-5
0.220, 1.155e-5
0.224, 1.148e-5
0.228, 1.121e-5
0.232, 1.128e-5
0.236, 1.118e-5
0.240, 1.120e-5
0.244, 1.100e-5
0.248, 1.087e-5
0.252, 1.087e-5
0.256, 1.079e-5
0.260, 1.049e-5
0.264, 1.065e-5
0.268, 1.037e-5
0.272, 1.042e-5
0.276, 1.003e-5
0.280, 9.959e-6
0.284, 9.924e-6
0.288, 9.806e-6
0.292, 9.571e-6
0.296, 9.629e-6
0.300, 9.476e-6
0.304, 9.253e-6
0.308, 9.335e-6
0.312, 9.088e-6
0.316, 8.994e-6
0.320, 8.958e-6
0.324, 8.911e-6
0.328, 8.758e-6
0.332, 8.711e-6
0.336, 8.641e-6
0.340, 8.558e-6
0.344, 8.417e-6
0.348, 8.264e-6
0.352, 8.276e-6
0.356, 8.229e-6
0.360, 8.182e-6
0.364, 8.205e-6
0.368, 8.076e-6
0.372, 7.934e-6
0.376, 7.887e-6
0.380, 7.793e-6
0.384, 7.758e-6
0.388, 7.687e-6
0.392, 7.699e-6
0.396, 7.546e-6
0.400, 7.499e-6
0.404, 7.499e-6
0.408, 7.369e-6
0.412, 7.322e-6
0.416, 7.240e-6
0.420, 7.193e-6
0.424, 7.157e-6
0.428, 7.146e-6
0.432, 7.004e-6
0.436, 6.934e-6
0.440, 6.863e-6
0.444, 6.745e-6
0.448, 6.769e-6
0.452, 6.710e-6
0.456, 6.710e-6
0.460, 6.616e-6
0.464, 6.592e-6
0.468, 6.628e-6
0.472, 6.569e-6
0.476, 6.427e-6
0.480, 6.333e-6
0.484, 6.345e-6
0.488, 6.392e-6
0.492, 6.286e-6
0.496, 6.157e-6
0.500, 6.216e-6
0.504, 6.039e-6
0.508, 6.157e-6
0.512, 6.039e-6
0.516, 5.980e-6
0.520, 6.121e-6
0.524, 5.968e-6
0.528, 5.980e-6
0.532, 5.968e-6
0.536, 5.945e-6
0.540, 5.980e-6
0.544, 5.980e-6
0.548, 5.874e-6
0.552, 5.862e-6
0.556, 6.086e-6
0.560, 6.121e-6
0.564, 6.251e-6
0.568, 6.369e-6
0.572, 6.427e-6
0.576, 6.828e-6
0.580, 7.063e-6
0.584, 7.322e-6
0.588, 7.852e-6
0.592, 8.158e-6
0.596, 8.864e-6
0.600, 9.547e-6
0.604, 1.043e-5
0.608, 1.167e-5
0.612, 1.285e-5
0.616, 1.446e-5
0.620, 1.641e-5
0.624, 1.889e-5
0.628, 2.191e-5
0.632, 2.560e-5
0.636, 3.052e-5
0.640, 3.685e-5
0.644, 4.496e-5
0.648, 5.449e-5
0.652, 6.522e-5
0.656, 7.739e-5
0.660, 9.021e-5
0.664, 1.037e-4
0.668, 1.184e-4
0.672, 1.335e-4
0.676, 1.477e-4
0.680, 1.580e-4
0.684, 1.628e-4
0.688, 1.625e-4
0.692, 1.606e-4
0.696, 1.580e-4
0.700, 1.558e-4
0.704, 1.533e-4
0.708, 1.507e-4
0.712, 1.482e-4
0.716, 1.457e-4
0.720, 1.437e-4
0.724, 1.420e-4
0.728, 1.405e-4
0.732, 1.394e-4
0.736, 1.386e-4
0.740, 1.380e-4
0.744, 1.377e-4
0.748, 1.373e-4
0.752, 1.372e-4
0.756, 1.372e-4
0.760, 1.370e-4
0.764, 1.368e-4
0.768, 1.365e-4
0.772, 1.359e-4
0.776, 1.352e-4
0.780, 1.343e-4
0.784, 1.332e-4
0.788, 1.322e-4
0.792, 1.306e-4
0.796, 1.292e-4
0.800, 1.277e-4
0.804, 1.260e-4
0.808, 1.247e-4
0.812, 1.235e-4
0.816, 1.222e-4
0.820, 1.212e-4
0.824, 1.199e-4
0.828, 1.190e-4
0.832, 1.185e-4
0.836, 1.177e-4
0.840, 1.170e-4
0.844, 1.165e-4
0.848, 1.159e-4
0.852, 1.150e-4
0.856, 1.144e-4
0.860, 1.135e-4
0.864, 1.127e-4
0.868, 1.116e-4
0.872, 1.104e-4
0.876, 1.091e-4
0.880, 1.075e-4
0.884, 1.058e-4
0.888, 1.039e-4
0.892, 1.018e-4
0.896, 9.946e-5
0.900, 9.712e-5
0.904, 9.498e-5
0.908, 9.249e-5
0.912, 8.973e-5
0.916, 8.710e-5
0.920, 8.469e-5
0.924, 8.198e-5
0.928, 7.946e-5
0.932, 7.689e-5
0.936, 7.445e-5
0.940, 7.230e-5
0.944, 6.994e-5
0.948, 6.763e-5
0.952, 6.541e-5
0.956, 6.334e-5
0.960, 6.136e-5
0.964, 5.893e-5
0.968, 5.681e-5
0.972, 5.468e-5
0.976, 5.256e-5
0.980, 5.053e-5
0.984, 4.836e-5
0.988, 4.648e-5
0.992, 4.437e-5
0.996, 4.240e-5
1.000, 4.050e-5
