July 22, 2025   17:00:30
Differential Pulse Voltammetry
File: e:\Data Source:  Experiment
Instrument Model:  CHI620E
Header: 
Note: 

Init E (V) = 0
Final E (V) = 1
Incr E (V) = 0.004
Amplitude (V) = 0.05
Pulse Width (sec) = 0.05
Sample Width (sec) = 0.0167
Pulse Period (sec) = 0.5
Quiet Time (sec) = 2
Sensitivity (A/V) = 0.01

Results:

Channel 1:
Ep = 0.656V
ip = 6.483e-5A
Ap = 2.899e-6VA

Potential/V, Current/A

0.004, 1.355e-5
0.008, 1.267e-5
0.012, 1.207e-5
0.016, 1.128e-5
0.020, 1.069e-5
0.024, 1.032e-5
0.028, 1.036e-5
0.032, 1.023e-5
0.036, 9.983e-6
0.040, 9.641e-6
0.044, 9.335e-6
0.048, 9.029e-6
0.052, 8.817e-6
0.056, 8.558e-6
0.060, 8.594e-6
0.064, 8.429e-6
0.068, 8.488e-6
0.072, 8.429e-6
0.076, 8.546e-6
0.080, 8.429e-6
0.084, 8.440e-6
0.088, 8.488e-6
0.092, 8.535e-6
0.096, 8.723e-6
0.100, 8.723e-6
0.104, 8.947e-6
0.108, 9.076e-6
0.112, 9.123e-6
0.116, 9.288e-6
0.120, 9.394e-6
0.124, 9.688e-6
0.128, 9.759e-6
0.132, 9.983e-6
0.136, 1.017e-5
0.140, 1.050e-5
0.144, 1.050e-5
0.148, 1.076e-5
0.152, 1.100e-5
0.156, 1.103e-5
0.160, 1.136e-5
0.164, 1.144e-5
0.168, 1.158e-5
0.172, 1.168e-5
0.176, 1.183e-5
0.180, 1.204e-5
0.184, 1.205e-5
0.188, 1.220e-5
0.192, 1.233e-5
0.196, 1.233e-5
0.200, 1.234e-5
0.204, 1.238e-5
0.208, 1.245e-5
0.212, 1.241e-5
0.216, 1.227e-5
0.220, 1.235e-5
0.224, 1.218e-5
0.228, 1.225e-5
0.232, 1.228e-5
0.236, 1.224e-5
0.240, 1.204e-5
0.244, 1.197e-5
0.248, 1.176e-5
0.252, 1.172e-5
0.256, 1.164e-5
0.260, 1.157e-5
0.264, 1.144e-5
0.268, 1.137e-5
0.272, 1.131e-5
0.276, 1.101e-5
0.280, 1.090e-5
0.284, 1.088e-5
0.288, 1.071e-5
0.292, 1.062e-5
0.296, 1.047e-5
0.300, 1.038e-5
0.304, 1.008e-5
0.308, 1.004e-5
0.312, 9.841e-6
0.316, 9.853e-6
0.320, 9.735e-6
0.324, 9.606e-6
0.328, 9.418e-6
0.332, 9.347e-6
0.336, 9.370e-6
0.340, 9.241e-6
0.344, 9.064e-6
0.348, 8.923e-6
0.352, 8.841e-6
0.356, 8.747e-6
0.360, 8.664e-6
0.364, 8.523e-6
0.368, 8.570e-6
0.372, 8.464e-6
0.376, 8.346e-6
0.380, 8.464e-6
0.384, 8.158e-6
0.388, 8.076e-6
0.392, 7.970e-6
0.396, 8.205e-6
0.400, 8.052e-6
0.404, 7.946e-6
0.408, 7.722e-6
0.412, 7.746e-6
0.416, 7.805e-6
0.420, 7.581e-6
0.424, 7.522e-6
0.428, 7.475e-6
0.432, 7.381e-6
0.436, 7.228e-6
0.440, 7.228e-6
0.444, 7.157e-6
0.448, 7.075e-6
0.452, 7.087e-6
0.456, 7.157e-6
0.460, 7.087e-6
0.464, 6.981e-6
0.468, 6.722e-6
0.472, 6.816e-6
0.476, 6.769e-6
0.480, 6.804e-6
0.484, 6.651e-6
0.488, 6.722e-6
0.492, 6.698e-6
0.496, 6.557e-6
0.500, 6.604e-6
0.504, 6.510e-6
0.508, 6.439e-6
0.512, 6.416e-6
0.516, 6.451e-6
0.520, 6.392e-6
0.524, 6.581e-6
0.528, 6.651e-6
0.532, 6.651e-6
0.536, 6.651e-6
0.540, 6.922e-6
0.544, 7.040e-6
0.548, 7.263e-6
0.552, 7.405e-6
0.556, 7.864e-6
0.560, 8.323e-6
0.564, 8.876e-6
0.568, 9.300e-6
0.572, 1.025e-5
0.576, 1.120e-5
0.580, 1.223e-5
0.584, 1.368e-5
0.588, 1.536e-5
0.592, 1.733e-5
0.596, 1.987e-5
0.600, 2.290e-5
0.604, 2.669e-5
0.608, 3.175e-5
0.612, 3.818e-5
0.616, 4.635e-5
0.620, 5.583e-5
0.624, 6.678e-5
0.628, 7.966e-5
0.632, 9.330e-5
0.636, 1.078e-4
0.640, 1.229e-4
0.644, 1.382e-4
0.648, 1.520e-4
0.652, 1.607e-4
0.656, 1.633e-4
0.660, 1.612e-4
0.664, 1.583e-4
0.668, 1.555e-4
0.672, 1.533e-4
0.676, 1.507e-4
0.680, 1.487e-4
0.684, 1.469e-4
0.688, 1.454e-4
0.692, 1.434e-4
0.696, 1.423e-4
0.700, 1.414e-4
0.704, 1.405e-4
0.708, 1.399e-4
0.712, 1.396e-4
0.716, 1.395e-4
0.720, 1.394e-4
0.724, 1.395e-4
0.728, 1.396e-4
0.732, 1.394e-4
0.736, 1.398e-4
0.740, 1.399e-4
0.744, 1.397e-4
0.748, 1.392e-4
0.752, 1.384e-4
0.756, 1.373e-4
0.760, 1.364e-4
0.764, 1.357e-4
0.768, 1.340e-4
0.772, 1.326e-4
0.776, 1.309e-4
0.780, 1.299e-4
0.784, 1.286e-4
0.788, 1.273e-4
0.792, 1.261e-4
0.796, 1.251e-4
0.800, 1.241e-4
0.804, 1.231e-4
0.808, 1.227e-4
0.812, 1.217e-4
0.816, 1.213e-4
0.820, 1.207e-4
0.824, 1.196e-4
0.828, 1.189e-4
0.832, 1.177e-4
0.836, 1.165e-4
0.840, 1.152e-4
0.844, 1.136e-4
0.848, 1.120e-4
0.852, 1.100e-4
0.856, 1.081e-4
0.860, 1.056e-4
0.864, 1.031e-4
0.868, 1.003e-4
0.872, 9.795e-5
0.876, 9.479e-5
0.880, 9.210e-5
0.884, 8.923e-5
0.888, 8.631e-5
0.892, 8.363e-5
0.896, 8.117e-5
0.900, 7.831e-5
0.904, 7.606e-5
0.908, 7.343e-5
0.912, 7.095e-5
0.916, 6.844e-5
0.920, 6.622e-5
0.924, 6.416e-5
0.928, 6.161e-5
0.932, 5.904e-5
0.936, 5.667e-5
0.940, 5.437e-5
0.944, 5.190e-5
0.948, 4.969e-5
0.952, 4.755e-5
0.956, 4.565e-5
0.960, 4.339e-5
0.964, 4.151e-5
0.968, 3.948e-5
0.972, 3.755e-5
0.976, 3.575e-5
0.980, 3.412e-5
0.984, 3.242e-5
0.988, 3.089e-5
0.992, 2.959e-5
0.996, 2.816e-5
1.000, 2.695e-5
