July 22, 2025   15:19:44
Differential Pulse Voltammetry
File: e:\Data Source:  Experiment
Instrument Model:  CHI620E
Header: 
Note: 

Init E (V) = 0
Final E (V) = 1
Incr E (V) = 0.004
Amplitude (V) = 0.05
Pulse Width (sec) = 0.05
Sample Width (sec) = 0.0167
Pulse Period (sec) = 0.5
Quiet Time (sec) = 2
Sensitivity (A/V) = 0.01

Results:

Channel 1:
Ep = 0.192V
ip = 2.410e-6A
Ap = 3.797e-7VA

Ep = 0.700V
ip = 6.131e-5A
Ap = 3.825e-6VA

Potential/V, Current/A

0.004, 1.204e-5
0.008, 1.116e-5
0.012, 1.067e-5
0.016, 1.019e-5
0.020, 1.004e-5
0.024, 9.465e-6
0.028, 9.217e-6
0.032, 9.088e-6
0.036, 9.041e-6
0.040, 9.029e-6
0.044, 9.076e-6
0.048, 9.100e-6
0.052, 9.064e-6
0.056, 8.853e-6
0.060, 8.629e-6
0.064, 8.699e-6
0.068, 8.335e-6
0.072, 8.605e-6
0.076, 8.417e-6
0.080, 8.488e-6
0.084, 8.535e-6
0.088, 8.488e-6
0.092, 8.488e-6
0.096, 8.499e-6
0.100, 8.570e-6
0.104, 8.499e-6
0.108, 8.594e-6
0.112, 8.676e-6
0.116, 8.782e-6
0.120, 8.664e-6
0.124, 8.970e-6
0.128, 8.923e-6
0.132, 9.029e-6
0.136, 9.147e-6
0.140, 9.276e-6
0.144, 9.429e-6
0.148, 9.429e-6
0.152, 9.512e-6
0.156, 9.759e-6
0.160, 9.759e-6
0.164, 9.947e-6
0.168, 1.014e-5
0.172, 1.012e-5
0.176, 1.028e-5
0.180, 1.022e-5
0.184, 1.016e-5
0.188, 1.037e-5
0.192, 1.050e-5
0.196, 1.042e-5
0.200, 1.043e-5
0.204, 1.045e-5
0.208, 1.042e-5
0.212, 1.039e-5
0.216, 1.045e-5
0.220, 1.028e-5
0.224, 1.043e-5
0.228, 1.032e-5
0.232, 1.028e-5
0.236, 1.032e-5
0.240, 1.022e-5
0.244, 1.011e-5
0.248, 9.888e-6
0.252, 1.005e-5
0.256, 9.900e-6
0.260, 9.653e-6
0.264, 9.606e-6
0.268, 9.547e-6
0.272, 9.418e-6
0.276, 9.441e-6
0.280, 9.241e-6
0.284, 9.182e-6
0.288, 9.123e-6
0.292, 9.123e-6
0.296, 8.805e-6
0.300, 8.900e-6
0.304, 8.817e-6
0.308, 8.629e-6
0.312, 8.558e-6
0.316, 8.652e-6
0.320, 8.488e-6
0.324, 8.370e-6
0.328, 8.452e-6
0.332, 8.205e-6
0.336, 8.205e-6
0.340, 8.170e-6
0.344, 8.005e-6
0.348, 7.934e-6
0.352, 7.840e-6
0.356, 7.852e-6
0.360, 7.887e-6
0.364, 7.581e-6
0.368, 7.687e-6
0.372, 7.687e-6
0.376, 7.558e-6
0.380, 7.428e-6
0.384, 7.416e-6
0.388, 7.216e-6
0.392, 7.310e-6
0.396, 7.252e-6
0.400, 7.204e-6
0.404, 7.040e-6
0.408, 7.040e-6
0.412, 7.122e-6
0.416, 6.792e-6
0.420, 6.945e-6
0.424, 6.804e-6
0.428, 6.686e-6
0.432, 6.804e-6
0.436, 6.698e-6
0.440, 6.581e-6
0.444, 6.498e-6
0.448, 6.369e-6
0.452, 6.298e-6
0.456, 6.392e-6
0.460, 6.263e-6
0.464, 6.357e-6
0.468, 6.098e-6
0.472, 6.086e-6
0.476, 6.180e-6
0.480, 5.992e-6
0.484, 5.874e-6
0.488, 6.027e-6
0.492, 5.780e-6
0.496, 5.827e-6
0.500, 5.662e-6
0.504, 5.568e-6
0.508, 5.709e-6
0.512, 5.498e-6
0.516, 5.356e-6
0.520, 5.615e-6
0.524, 5.462e-6
0.528, 5.439e-6
0.532, 5.498e-6
0.536, 5.427e-6
0.540, 5.439e-6
0.544, 5.415e-6
0.548, 5.356e-6
0.552, 5.403e-6
0.556, 5.474e-6
0.560, 5.450e-6
0.564, 5.580e-6
0.568, 5.709e-6
0.572, 5.886e-6
0.576, 6.169e-6
0.580, 6.286e-6
0.584, 6.639e-6
0.588, 6.957e-6
0.592, 7.416e-6
0.596, 7.911e-6
0.600, 8.747e-6
0.604, 9.453e-6
0.608, 1.058e-5
0.612, 1.177e-5
0.616, 1.343e-5
0.620, 1.532e-5
0.624, 1.809e-5
0.628, 2.120e-5
0.632, 2.535e-5
0.636, 3.067e-5
0.640, 3.722e-5
0.644, 4.520e-5
0.648, 5.522e-5
0.652, 6.654e-5
0.656, 8.019e-5
0.660, 9.467e-5
0.664, 1.092e-4
0.668, 1.229e-4
0.672, 1.364e-4
0.676, 1.479e-4
0.680, 1.554e-4
0.684, 1.592e-4
0.688, 1.617e-4
0.692, 1.636e-4
0.696, 1.651e-4
0.700, 1.652e-4
0.704, 1.637e-4
0.708, 1.605e-4
0.712, 1.574e-4
0.716, 1.544e-4
0.720, 1.515e-4
0.724, 1.497e-4
0.728, 1.481e-4
0.732, 1.466e-4
0.736, 1.457e-4
0.740, 1.448e-4
0.744, 1.442e-4
0.748, 1.440e-4
0.752, 1.436e-4
0.756, 1.432e-4
0.760, 1.428e-4
0.764, 1.424e-4
0.768, 1.416e-4
0.772, 1.406e-4
0.776, 1.397e-4
0.780, 1.385e-4
0.784, 1.371e-4
0.788, 1.357e-4
0.792, 1.340e-4
0.796, 1.325e-4
0.800, 1.309e-4
0.804, 1.293e-4
0.808, 1.277e-4
0.812, 1.265e-4
0.816, 1.251e-4
0.820, 1.239e-4
0.824, 1.228e-4
0.828, 1.219e-4
0.832, 1.209e-4
0.836, 1.201e-4
0.840, 1.191e-4
0.844, 1.182e-4
0.848, 1.172e-4
0.852, 1.159e-4
0.856, 1.147e-4
0.860, 1.134e-4
0.864, 1.120e-4
0.868, 1.100e-4
0.872, 1.080e-4
0.876, 1.058e-4
0.880, 1.035e-4
0.884, 1.011e-4
0.888, 9.857e-5
0.892, 9.618e-5
0.896, 9.368e-5
0.900, 9.082e-5
0.904, 8.845e-5
0.908, 8.586e-5
0.912, 8.343e-5
0.916, 8.100e-5
0.920, 7.858e-5
0.924, 7.621e-5
0.928, 7.386e-5
0.932, 7.148e-5
0.936, 6.928e-5
0.940, 6.702e-5
0.944, 6.508e-5
0.948, 6.290e-5
0.952, 6.080e-5
0.956, 5.875e-5
0.960, 5.678e-5
0.964, 5.456e-5
0.968, 5.261e-5
0.972, 5.051e-5
0.976, 4.851e-5
0.980, 4.646e-5
0.984, 4.442e-5
0.988, 4.269e-5
0.992, 4.094e-5
0.996, 3.915e-5
1.000, 3.743e-5
