July 21, 2025   16:35:00
Differential Pulse Voltammetry
File: e:\Data Source:  Experiment
Instrument Model:  CHI620E
Header: 
Note: 

Init E (V) = 0
Final E (V) = 1
Incr E (V) = 0.004
Amplitude (V) = 0.05
Pulse Width (sec) = 0.05
Sample Width (sec) = 0.0167
Pulse Period (sec) = 0.5
Quiet Time (sec) = 2
Sensitivity (A/V) = 0.01

Results:

Channel 1:
Ep = 0.452V
ip = 9.294e-5A
Ap = 4.628e-6VA

Potential/V, Current/A

0.004, 1.389e-5
0.008, 1.364e-5
0.012, 1.290e-5
0.016, 1.216e-5
0.020, 1.162e-5
0.024, 1.122e-5
0.028, 1.072e-5
0.032, 1.041e-5
0.036, 1.019e-5
0.040, 9.912e-6
0.044, 9.712e-6
0.048, 9.700e-6
0.052, 9.512e-6
0.056, 9.312e-6
0.060, 9.335e-6
0.064, 9.182e-6
0.068, 9.006e-6
0.072, 9.064e-6
0.076, 8.958e-6
0.080, 8.758e-6
0.084, 8.688e-6
0.088, 8.582e-6
0.092, 8.652e-6
0.096, 8.511e-6
0.100, 8.582e-6
0.104, 8.429e-6
0.108, 8.287e-6
0.112, 8.264e-6
0.116, 8.287e-6
0.120, 8.287e-6
0.124, 8.323e-6
0.128, 8.193e-6
0.132, 8.146e-6
0.136, 8.193e-6
0.140, 8.287e-6
0.144, 8.182e-6
0.148, 8.370e-6
0.152, 8.229e-6
0.156, 8.358e-6
0.160, 8.276e-6
0.164, 8.287e-6
0.168, 8.276e-6
0.172, 8.240e-6
0.176, 8.287e-6
0.180, 8.488e-6
0.184, 8.217e-6
0.188, 8.393e-6
0.192, 8.440e-6
0.196, 8.417e-6
0.200, 8.405e-6
0.204, 8.335e-6
0.208, 8.499e-6
0.212, 8.452e-6
0.216, 8.287e-6
0.220, 8.582e-6
0.224, 8.511e-6
0.228, 8.546e-6
0.232, 8.499e-6
0.236, 8.441e-6
0.240, 8.499e-6
0.244, 8.417e-6
0.248, 8.382e-6
0.252, 8.452e-6
0.256, 8.417e-6
0.260, 8.323e-6
0.264, 8.570e-6
0.268, 8.440e-6
0.272, 8.393e-6
0.276, 8.417e-6
0.280, 8.382e-6
0.284, 8.346e-6
0.288, 8.287e-6
0.292, 8.370e-6
0.296, 8.170e-6
0.300, 8.299e-6
0.304, 8.335e-6
0.308, 8.229e-6
0.312, 8.170e-6
0.316, 8.323e-6
0.320, 8.146e-6
0.324, 8.099e-6
0.328, 8.193e-6
0.332, 8.323e-6
0.336, 8.335e-6
0.340, 8.323e-6
0.344, 8.558e-6
0.348, 8.723e-6
0.352, 8.817e-6
0.356, 9.135e-6
0.360, 9.359e-6
0.364, 9.794e-6
0.368, 1.030e-5
0.372, 1.095e-5
0.376, 1.176e-5
0.380, 1.289e-5
0.384, 1.399e-5
0.388, 1.549e-5
0.392, 1.760e-5
0.396, 2.026e-5
0.400, 2.325e-5
0.404, 2.705e-5
0.408, 3.165e-5
0.412, 3.755e-5
0.416, 4.513e-5
0.420, 5.439e-5
0.424, 6.606e-5
0.428, 7.980e-5
0.432, 9.561e-5
0.436, 1.121e-4
0.440, 1.278e-4
0.444, 1.405e-4
0.448, 1.494e-4
0.452, 1.529e-4
0.456, 1.516e-4
0.460, 1.473e-4
0.464, 1.415e-4
0.468, 1.350e-4
0.472, 1.287e-4
0.476, 1.227e-4
0.480, 1.170e-4
0.484, 1.121e-4
0.488, 1.078e-4
0.492, 1.037e-4
0.496, 1.000e-4
0.500, 9.708e-5
0.504, 9.439e-5
0.508, 9.243e-5
0.512, 9.070e-5
0.516, 8.930e-5
0.520, 8.865e-5
0.524, 8.816e-5
0.528, 8.827e-5
0.532, 8.848e-5
0.536, 8.904e-5
0.540, 8.986e-5
0.544, 9.099e-5
0.548, 9.230e-5
0.552, 9.383e-5
0.556, 9.545e-5
0.560, 9.720e-5
0.564, 9.905e-5
0.568, 1.007e-4
0.572, 1.028e-4
0.576, 1.048e-4
0.580, 1.064e-4
0.584, 1.082e-4
0.588, 1.100e-4
0.592, 1.114e-4
0.596, 1.129e-4
0.600, 1.140e-4
0.604, 1.151e-4
0.608, 1.159e-4
0.612, 1.165e-4
0.616, 1.171e-4
0.620, 1.172e-4
0.624, 1.173e-4
0.628, 1.170e-4
0.632, 1.166e-4
0.636, 1.160e-4
0.640, 1.151e-4
0.644, 1.137e-4
0.648, 1.122e-4
0.652, 1.101e-4
0.656, 1.078e-4
0.660, 1.051e-4
0.664, 1.021e-4
0.668, 9.896e-5
0.672, 9.574e-5
0.676, 9.213e-5
0.680, 8.860e-5
0.684, 8.498e-5
0.688, 8.166e-5
0.692, 7.833e-5
0.696, 7.513e-5
0.700, 7.229e-5
0.704, 6.956e-5
0.708, 6.704e-5
0.712, 6.483e-5
0.716, 6.240e-5
0.720, 6.046e-5
0.724, 5.835e-5
0.728, 5.648e-5
0.732, 5.469e-5
0.736, 5.286e-5
0.740, 5.107e-5
0.744, 4.938e-5
0.748, 4.749e-5
0.752, 4.591e-5
0.756, 4.419e-5
0.760, 4.237e-5
0.764, 4.072e-5
0.768, 3.913e-5
0.772, 3.760e-5
0.776, 3.598e-5
0.780, 3.460e-5
0.784, 3.306e-5
0.788, 3.169e-5
0.792, 3.047e-5
0.796, 2.918e-5
0.800, 2.803e-5
0.804, 2.672e-5
0.808, 2.559e-5
0.812, 2.464e-5
0.816, 2.352e-5
0.820, 2.266e-5
0.824, 2.165e-5
0.828, 2.097e-5
0.832, 2.013e-5
0.836, 1.949e-5
0.840, 1.879e-5
0.844, 1.838e-5
0.848, 1.769e-5
0.852, 1.726e-5
0.856, 1.679e-5
0.860, 1.625e-5
0.864, 1.601e-5
0.868, 1.554e-5
0.872, 1.524e-5
0.876, 1.492e-5
0.880, 1.475e-5
0.884, 1.428e-5
0.888, 1.397e-5
0.892, 1.380e-5
0.896, 1.369e-5
0.900, 1.333e-5
0.904, 1.328e-5
0.908, 1.321e-5
0.912, 1.298e-5
0.916, 1.297e-5
0.920, 1.295e-5
0.924, 1.285e-5
0.928, 1.274e-5
0.932, 1.260e-5
0.936, 1.264e-5
0.940, 1.262e-5
0.944, 1.260e-5
0.948, 1.261e-5
0.952, 1.260e-5
0.956, 1.250e-5
0.960, 1.260e-5
0.964, 1.258e-5
0.968, 1.263e-5
0.972, 1.255e-5
0.976, 1.271e-5
0.980, 1.270e-5
0.984, 1.275e-5
0.988, 1.276e-5
0.992, 1.285e-5
0.996, 1.282e-5
1.000, 1.298e-5
