July 14, 2025   17:56:12
Differential Pulse Voltammetry
File: e:\Data Source:  Experiment
Instrument Model:  CHI620E
Header: 
Note: 

Init E (V) = 0
Final E (V) = 1
Incr E (V) = 0.004
Amplitude (V) = 0.05
Pulse Width (sec) = 0.05
Sample Width (sec) = 0.0167
Pulse Period (sec) = 0.5
Quiet Time (sec) = 2
Sensitivity (A/V) = 0.01

Results:

Channel 1:
Ep = 0.180V
ip = 1.782e-6A
Ap = 2.563e-7VA

Ep = 0.692V
ip = 3.862e-5A
Ap = 1.672e-6VA

Potential/V, Current/A

0.004, 1.223e-5
0.008, 1.130e-5
0.012, 1.055e-5
0.016, 1.018e-5
0.020, 1.015e-5
0.024, 9.971e-6
0.028, 9.488e-6
0.032, 9.041e-6
0.036, 8.723e-6
0.040, 8.370e-6
0.044, 7.887e-6
0.048, 7.793e-6
0.052, 7.699e-6
0.056, 7.334e-6
0.060, 7.369e-6
0.064, 7.263e-6
0.068, 7.134e-6
0.072, 7.134e-6
0.076, 7.204e-6
0.080, 7.098e-6
0.084, 7.299e-6
0.088, 7.299e-6
0.092, 7.369e-6
0.096, 7.357e-6
0.100, 7.452e-6
0.104, 7.440e-6
0.108, 7.569e-6
0.112, 7.593e-6
0.116, 7.746e-6
0.120, 7.758e-6
0.124, 7.746e-6
0.128, 7.899e-6
0.132, 7.923e-6
0.136, 8.005e-6
0.140, 8.028e-6
0.144, 8.087e-6
0.148, 8.240e-6
0.152, 8.182e-6
0.156, 8.393e-6
0.160, 8.346e-6
0.164, 8.546e-6
0.168, 8.299e-6
0.172, 8.382e-6
0.176, 8.405e-6
0.180, 8.582e-6
0.184, 8.346e-6
0.188, 8.488e-6
0.192, 8.429e-6
0.196, 8.476e-6
0.200, 8.335e-6
0.204, 8.441e-6
0.208, 8.217e-6
0.212, 8.276e-6
0.216, 8.123e-6
0.220, 8.311e-6
0.224, 8.099e-6
0.228, 8.005e-6
0.232, 7.817e-6
0.236, 8.005e-6
0.240, 7.828e-6
0.244, 7.769e-6
0.248, 7.734e-6
0.252, 7.758e-6
0.256, 7.581e-6
0.260, 7.511e-6
0.264, 7.393e-6
0.268, 7.463e-6
0.272, 7.334e-6
0.276, 7.216e-6
0.280, 7.181e-6
0.284, 7.122e-6
0.288, 7.016e-6
0.292, 7.040e-6
0.296, 6.898e-6
0.300, 6.957e-6
0.304, 6.828e-6
0.308, 6.686e-6
0.312, 6.569e-6
0.316, 6.663e-6
0.320, 6.557e-6
0.324, 6.475e-6
0.328, 6.510e-6
0.332, 6.533e-6
0.336, 6.333e-6
0.340, 6.416e-6
0.344, 6.298e-6
0.348, 6.251e-6
0.352, 6.251e-6
0.356, 6.263e-6
0.360, 6.039e-6
0.364, 6.204e-6
0.368, 6.063e-6
0.372, 6.239e-6
0.376, 6.110e-6
0.380, 6.051e-6
0.384, 6.039e-6
0.388, 6.098e-6
0.392, 5.957e-6
0.396, 6.015e-6
0.400, 5.886e-6
0.404, 6.121e-6
0.408, 5.851e-6
0.412, 5.804e-6
0.416, 5.804e-6
0.420, 5.839e-6
0.424, 5.851e-6
0.428, 5.756e-6
0.432, 5.851e-6
0.436, 5.815e-6
0.440, 5.709e-6
0.444, 5.674e-6
0.448, 5.627e-6
0.452, 5.568e-6
0.456, 5.592e-6
0.460, 5.545e-6
0.464, 5.592e-6
0.468, 5.474e-6
0.472, 5.450e-6
0.476, 5.486e-6
0.480, 5.486e-6
0.484, 5.545e-6
0.488, 5.509e-6
0.492, 5.533e-6
0.496, 5.392e-6
0.500, 5.380e-6
0.504, 5.427e-6
0.508, 5.450e-6
0.512, 5.368e-6
0.516, 5.239e-6
0.520, 5.227e-6
0.524, 5.309e-6
0.528, 5.274e-6
0.532, 5.227e-6
0.536, 5.344e-6
0.540, 5.474e-6
0.544, 5.380e-6
0.548, 5.403e-6
0.552, 5.321e-6
0.556, 5.462e-6
0.560, 5.509e-6
0.564, 5.509e-6
0.568, 5.533e-6
0.572, 5.839e-6
0.576, 5.992e-6
0.580, 6.015e-6
0.584, 6.427e-6
0.588, 6.533e-6
0.592, 7.040e-6
0.596, 7.475e-6
0.600, 7.864e-6
0.604, 8.641e-6
0.608, 9.217e-6
0.612, 1.019e-5
0.616, 1.127e-5
0.620, 1.261e-5
0.624, 1.402e-5
0.628, 1.595e-5
0.632, 1.822e-5
0.636, 2.118e-5
0.640, 2.429e-5
0.644, 2.855e-5
0.648, 3.364e-5
0.652, 4.005e-5
0.656, 4.732e-5
0.660, 5.567e-5
0.664, 6.496e-5
0.668, 7.539e-5
0.672, 8.585e-5
0.676, 9.607e-5
0.680, 1.045e-4
0.684, 1.107e-4
0.688, 1.144e-4
0.692, 1.153e-4
0.696, 1.144e-4
0.700, 1.126e-4
0.704, 1.104e-4
0.708, 1.084e-4
0.712, 1.069e-4
0.716, 1.053e-4
0.720, 1.041e-4
0.724, 1.026e-4
0.728, 1.015e-4
0.732, 1.008e-4
0.736, 1.001e-4
0.740, 9.991e-5
0.744, 1.002e-4
0.748, 1.010e-4
0.752, 1.022e-4
0.756, 1.037e-4
0.760, 1.056e-4
0.764, 1.079e-4
0.768, 1.105e-4
0.772, 1.131e-4
0.776, 1.162e-4
0.780, 1.192e-4
0.784, 1.221e-4
0.788, 1.250e-4
0.792, 1.279e-4
0.796, 1.303e-4
0.800, 1.327e-4
0.804, 1.348e-4
0.808, 1.363e-4
0.812, 1.378e-4
0.816, 1.387e-4
0.820, 1.396e-4
0.824, 1.398e-4
0.828, 1.397e-4
0.832, 1.397e-4
0.836, 1.389e-4
0.840, 1.380e-4
0.844, 1.367e-4
0.848, 1.348e-4
0.852, 1.329e-4
0.856, 1.305e-4
0.860, 1.281e-4
0.864, 1.254e-4
0.868, 1.226e-4
0.872, 1.197e-4
0.876, 1.168e-4
0.880, 1.136e-4
0.884, 1.107e-4
0.888, 1.076e-4
0.892, 1.045e-4
0.896, 1.014e-4
0.900, 9.787e-5
0.904, 9.469e-5
0.908, 9.119e-5
0.912, 8.774e-5
0.916, 8.437e-5
0.920, 8.052e-5
0.924, 7.702e-5
0.928, 7.340e-5
0.932, 7.001e-5
0.936, 6.615e-5
0.940, 6.274e-5
0.944, 5.933e-5
0.948, 5.614e-5
0.952, 5.304e-5
0.956, 5.007e-5
0.960, 4.732e-5
0.964, 4.487e-5
0.968, 4.233e-5
0.972, 4.013e-5
0.976, 3.800e-5
0.980, 3.607e-5
0.984, 3.421e-5
0.988, 3.254e-5
0.992, 3.096e-5
0.996, 2.932e-5
1.000, 2.804e-5
