July 14, 2025   17:54:02
Differential Pulse Voltammetry
File: e:\Data Source:  Experiment
Instrument Model:  CHI620E
Header: 
Note: 

Init E (V) = 0
Final E (V) = 1
Incr E (V) = 0.004
Amplitude (V) = 0.05
Pulse Width (sec) = 0.05
Sample Width (sec) = 0.0167
Pulse Period (sec) = 0.5
Quiet Time (sec) = 2
Sensitivity (A/V) = 0.01

Results:

Channel 1:
Ep = 0.692V
ip = 4.445e-5A
Ap = 1.930e-6VA

Potential/V, Current/A

0.004, 1.202e-5
0.008, 1.122e-5
0.012, 1.045e-5
0.016, 1.017e-5
0.020, 1.003e-5
0.024, 9.912e-6
0.028, 9.476e-6
0.032, 8.923e-6
0.036, 8.499e-6
0.040, 8.170e-6
0.044, 8.005e-6
0.048, 7.911e-6
0.052, 7.593e-6
0.056, 7.428e-6
0.060, 7.240e-6
0.064, 7.252e-6
0.068, 7.063e-6
0.072, 7.075e-6
0.076, 7.216e-6
0.080, 7.075e-6
0.084, 7.016e-6
0.088, 7.134e-6
0.092, 7.322e-6
0.096, 7.393e-6
0.100, 7.393e-6
0.104, 7.499e-6
0.108, 7.534e-6
0.112, 7.558e-6
0.116, 7.687e-6
0.120, 7.522e-6
0.124, 7.828e-6
0.128, 7.946e-6
0.132, 7.946e-6
0.136, 8.052e-6
0.140, 8.040e-6
0.144, 8.146e-6
0.148, 8.240e-6
0.152, 8.193e-6
0.156, 8.452e-6
0.160, 8.570e-6
0.164, 8.488e-6
0.168, 8.405e-6
0.172, 8.594e-6
0.176, 8.605e-6
0.180, 8.582e-6
0.184, 8.488e-6
0.188, 8.417e-6
0.192, 8.664e-6
0.196, 8.546e-6
0.200, 8.370e-6
0.204, 8.499e-6
0.208, 8.546e-6
0.212, 8.299e-6
0.216, 8.370e-6
0.220, 8.252e-6
0.224, 8.240e-6
0.228, 8.134e-6
0.232, 8.028e-6
0.236, 8.028e-6
0.240, 8.052e-6
0.244, 7.852e-6
0.248, 7.852e-6
0.252, 7.970e-6
0.256, 7.664e-6
0.260, 7.463e-6
0.264, 7.616e-6
0.268, 7.522e-6
0.272, 7.416e-6
0.276, 7.287e-6
0.280, 7.216e-6
0.284, 7.275e-6
0.288, 7.122e-6
0.292, 7.051e-6
0.296, 7.275e-6
0.300, 6.945e-6
0.304, 7.051e-6
0.308, 6.781e-6
0.312, 6.734e-6
0.316, 6.840e-6
0.320, 6.698e-6
0.324, 6.686e-6
0.328, 6.663e-6
0.332, 6.616e-6
0.336, 6.545e-6
0.340, 6.639e-6
0.344, 6.498e-6
0.348, 6.380e-6
0.352, 6.357e-6
0.356, 6.204e-6
0.360, 6.310e-6
0.364, 6.333e-6
0.368, 6.274e-6
0.372, 6.227e-6
0.376, 6.227e-6
0.380, 6.204e-6
0.384, 6.169e-6
0.388, 6.145e-6
0.392, 6.027e-6
0.396, 6.027e-6
0.400, 6.051e-6
0.404, 6.039e-6
0.408, 6.015e-6
0.412, 6.063e-6
0.416, 5.957e-6
0.420, 5.898e-6
0.424, 5.851e-6
0.428, 5.792e-6
0.432, 5.874e-6
0.436, 5.733e-6
0.440, 5.686e-6
0.444, 5.780e-6
0.448, 5.615e-6
0.452, 5.639e-6
0.456, 5.733e-6
0.460, 5.639e-6
0.464, 5.674e-6
0.468, 5.592e-6
0.472, 5.615e-6
0.476, 5.580e-6
0.480, 5.533e-6
0.484, 5.627e-6
0.488, 5.486e-6
0.492, 5.603e-6
0.496, 5.745e-6
0.500, 5.439e-6
0.504, 5.415e-6
0.508, 5.486e-6
0.512, 5.580e-6
0.516, 5.274e-6
0.520, 5.403e-6
0.524, 5.486e-6
0.528, 5.344e-6
0.532, 5.415e-6
0.536, 5.286e-6
0.540, 5.274e-6
0.544, 5.486e-6
0.548, 5.274e-6
0.552, 5.462e-6
0.556, 5.450e-6
0.560, 5.427e-6
0.564, 5.509e-6
0.568, 5.686e-6
0.572, 5.980e-6
0.576, 5.921e-6
0.580, 6.133e-6
0.584, 6.333e-6
0.588, 6.698e-6
0.592, 6.934e-6
0.596, 7.534e-6
0.600, 7.840e-6
0.604, 8.488e-6
0.608, 9.335e-6
0.612, 1.010e-5
0.616, 1.125e-5
0.620, 1.249e-5
0.624, 1.403e-5
0.628, 1.596e-5
0.632, 1.809e-5
0.636, 2.093e-5
0.640, 2.423e-5
0.644, 2.839e-5
0.648, 3.360e-5
0.652, 3.986e-5
0.656, 4.716e-5
0.660, 5.570e-5
0.664, 6.497e-5
0.668, 7.562e-5
0.672, 8.683e-5
0.676, 9.758e-5
0.680, 1.069e-4
0.684, 1.137e-4
0.688, 1.176e-4
0.692, 1.190e-4
0.696, 1.180e-4
0.700, 1.157e-4
0.704, 1.130e-4
0.708, 1.104e-4
0.712, 1.082e-4
0.716, 1.062e-4
0.720, 1.043e-4
0.724, 1.027e-4
0.728, 1.012e-4
0.732, 1.003e-4
0.736, 9.966e-5
0.740, 9.960e-5
0.744, 9.985e-5
0.748, 1.008e-4
0.752, 1.018e-4
0.756, 1.034e-4
0.760, 1.054e-4
0.764, 1.075e-4
0.768, 1.102e-4
0.772, 1.127e-4
0.776, 1.158e-4
0.780, 1.188e-4
0.784, 1.217e-4
0.788, 1.247e-4
0.792, 1.274e-4
0.796, 1.301e-4
0.800, 1.324e-4
0.804, 1.342e-4
0.808, 1.360e-4
0.812, 1.375e-4
0.816, 1.385e-4
0.820, 1.393e-4
0.824, 1.394e-4
0.828, 1.396e-4
0.832, 1.393e-4
0.836, 1.386e-4
0.840, 1.375e-4
0.844, 1.362e-4
0.848, 1.346e-4
0.852, 1.324e-4
0.856, 1.301e-4
0.860, 1.277e-4
0.864, 1.251e-4
0.868, 1.222e-4
0.872, 1.194e-4
0.876, 1.163e-4
0.880, 1.134e-4
0.884, 1.104e-4
0.888, 1.071e-4
0.892, 1.043e-4
0.896, 1.009e-4
0.900, 9.787e-5
0.904, 9.443e-5
0.908, 9.109e-5
0.912, 8.756e-5
0.916, 8.411e-5
0.920, 8.040e-5
0.924, 7.692e-5
0.928, 7.332e-5
0.932, 6.965e-5
0.936, 6.622e-5
0.940, 6.266e-5
0.944, 5.939e-5
0.948, 5.616e-5
0.952, 5.312e-5
0.956, 5.030e-5
0.960, 4.742e-5
0.964, 4.480e-5
0.968, 4.253e-5
0.972, 4.018e-5
0.976, 3.819e-5
0.980, 3.627e-5
0.984, 3.429e-5
0.988, 3.274e-5
0.992, 3.100e-5
0.996, 2.956e-5
1.000, 2.809e-5
