July 23, 2025   17:47:09
Differential Pulse Voltammetry
File: e:\Data Source:  Experiment
Instrument Model:  CHI620E
Header: 
Note: 

Init E (V) = 0
Final E (V) = 1
Incr E (V) = 0.004
Amplitude (V) = 0.05
Pulse Width (sec) = 0.05
Sample Width (sec) = 0.0167
Pulse Period (sec) = 0.5
Quiet Time (sec) = 2
Sensitivity (A/V) = 0.01

Results:

Channel 1:
Ep = 0.108V
ip = 7.984e-7A
Ap = 7.681e-8VA

Ep = 0.572V
ip = 3.679e-5A
Ap = 4.047e-6VA

Potential/V, Current/A

0.004, 8.417e-6
0.008, 8.229e-6
0.012, 7.864e-6
0.016, 7.357e-6
0.020, 7.134e-6
0.024, 6.604e-6
0.028, 6.628e-6
0.032, 6.522e-6
0.036, 6.204e-6
0.040, 6.263e-6
0.044, 6.157e-6
0.048, 6.121e-6
0.052, 5.980e-6
0.056, 6.015e-6
0.060, 6.180e-6
0.064, 6.004e-6
0.068, 6.063e-6
0.072, 6.145e-6
0.076, 6.322e-6
0.080, 6.204e-6
0.084, 6.310e-6
0.088, 6.286e-6
0.092, 6.286e-6
0.096, 6.322e-6
0.100, 6.274e-6
0.104, 6.392e-6
0.108, 6.439e-6
0.112, 6.286e-6
0.116, 6.322e-6
0.120, 6.333e-6
0.124, 6.227e-6
0.128, 6.169e-6
0.132, 6.004e-6
0.136, 6.121e-6
0.140, 5.980e-6
0.144, 5.874e-6
0.148, 5.921e-6
0.152, 5.957e-6
0.156, 5.792e-6
0.160, 5.827e-6
0.164, 5.733e-6
0.168, 5.733e-6
0.172, 5.615e-6
0.176, 5.639e-6
0.180, 5.662e-6
0.184, 5.333e-6
0.188, 5.333e-6
0.192, 5.309e-6
0.196, 5.250e-6
0.200, 5.085e-6
0.204, 5.109e-6
0.208, 5.085e-6
0.212, 4.909e-6
0.216, 4.897e-6
0.220, 4.803e-6
0.224, 4.721e-6
0.228, 4.697e-6
0.232, 4.721e-6
0.236, 4.650e-6
0.240, 4.544e-6
0.244, 4.520e-6
0.248, 4.332e-6
0.252, 4.367e-6
0.256, 4.462e-6
0.260, 4.320e-6
0.264, 4.426e-6
0.268, 4.226e-6
0.272, 4.332e-6
0.276, 4.191e-6
0.280, 4.156e-6
0.284, 4.156e-6
0.288, 4.061e-6
0.292, 4.108e-6
0.296, 4.097e-6
0.300, 4.191e-6
0.304, 4.014e-6
0.308, 3.944e-6
0.312, 3.838e-6
0.316, 4.002e-6
0.320, 3.932e-6
0.324, 3.979e-6
0.328, 3.920e-6
0.332, 4.014e-6
0.336, 3.920e-6
0.340, 3.791e-6
0.344, 3.755e-6
0.348, 3.861e-6
0.352, 3.755e-6
0.356, 3.767e-6
0.360, 3.791e-6
0.364, 3.755e-6
0.368, 3.732e-6
0.372, 3.626e-6
0.376, 3.791e-6
0.380, 3.661e-6
0.384, 3.732e-6
0.388, 3.590e-6
0.392, 3.649e-6
0.396, 3.696e-6
0.400, 3.590e-6
0.404, 3.626e-6
0.408, 3.437e-6
0.412, 3.567e-6
0.416, 3.555e-6
0.420, 3.390e-6
0.424, 3.343e-6
0.428, 3.320e-6
0.432, 3.390e-6
0.436, 3.473e-6
0.440, 3.214e-6
0.444, 3.320e-6
0.448, 3.355e-6
0.452, 3.237e-6
0.456, 3.331e-6
0.460, 3.367e-6
0.464, 3.296e-6
0.468, 3.308e-6
0.472, 3.426e-6
0.476, 3.473e-6
0.480, 3.626e-6
0.484, 3.767e-6
0.488, 3.814e-6
0.492, 4.203e-6
0.496, 4.367e-6
0.500, 4.662e-6
0.504, 5.109e-6
0.508, 5.592e-6
0.512, 6.380e-6
0.516, 6.957e-6
0.520, 8.134e-6
0.524, 9.476e-6
0.528, 1.112e-5
0.532, 1.329e-5
0.536, 1.614e-5
0.540, 1.981e-5
0.544, 2.407e-5
0.548, 2.905e-5
0.552, 3.444e-5
0.556, 3.937e-5
0.560, 4.318e-5
0.564, 4.603e-5
0.568, 4.744e-5
0.572, 4.817e-5
0.576, 4.791e-5
0.580, 4.728e-5
0.584, 4.657e-5
0.588, 4.569e-5
0.592, 4.475e-5
0.596, 4.391e-5
0.600, 4.321e-5
0.604, 4.258e-5
0.608, 4.191e-5
0.612, 4.152e-5
0.616, 4.103e-5
0.620, 4.070e-5
0.624, 4.040e-5
0.628, 4.014e-5
0.632, 3.957e-5
0.636, 3.949e-5
0.640, 3.887e-5
0.644, 3.861e-5
0.648, 3.795e-5
0.652, 3.731e-5
0.656, 3.665e-5
0.660, 3.592e-5
0.664, 3.512e-5
0.668, 3.435e-5
0.672, 3.348e-5
0.676, 3.256e-5
0.680, 3.176e-5
0.684, 3.089e-5
0.688, 2.999e-5
0.692, 2.939e-5
0.696, 2.864e-5
0.700, 2.815e-5
0.704, 2.752e-5
0.708, 2.684e-5
0.712, 2.651e-5
0.716, 2.617e-5
0.720, 2.583e-5
0.724, 2.539e-5
0.728, 2.517e-5
0.732, 2.494e-5
0.736, 2.474e-5
0.740, 2.437e-5
0.744, 2.411e-5
0.748, 2.390e-5
0.752, 2.387e-5
0.756, 2.357e-5
0.760, 2.334e-5
0.764, 2.307e-5
0.768, 2.283e-5
0.772, 2.245e-5
0.776, 2.226e-5
0.780, 2.188e-5
0.784, 2.171e-5
0.788, 2.119e-5
0.792, 2.091e-5
0.796, 2.070e-5
0.800, 2.032e-5
0.804, 1.964e-5
0.808, 1.922e-5
0.812, 1.884e-5
0.816, 1.841e-5
0.820, 1.792e-5
0.824, 1.735e-5
0.828, 1.689e-5
0.832, 1.640e-5
0.836, 1.603e-5
0.840, 1.553e-5
0.844, 1.513e-5
0.848, 1.482e-5
0.852, 1.448e-5
0.856, 1.408e-5
0.860, 1.366e-5
0.864, 1.347e-5
0.868, 1.321e-5
0.872, 1.284e-5
0.876, 1.288e-5
0.880, 1.242e-5
0.884, 1.216e-5
0.888, 1.201e-5
0.892, 1.187e-5
0.896, 1.182e-5
0.900, 1.149e-5
0.904, 1.154e-5
0.908, 1.154e-5
0.912, 1.124e-5
0.916, 1.122e-5
0.920, 1.120e-5
0.924, 1.110e-5
0.928, 1.111e-5
0.932, 1.109e-5
0.936, 1.096e-5
0.940, 1.125e-5
0.944, 1.117e-5
0.948, 1.120e-5
0.952, 1.107e-5
0.956, 1.125e-5
0.960, 1.136e-5
0.964, 1.137e-5
0.968, 1.134e-5
0.972, 1.143e-5
0.976, 1.151e-5
0.980, 1.161e-5
0.984, 1.157e-5
0.988, 1.156e-5
0.992, 1.155e-5
0.996, 1.160e-5
1.000, 1.181e-5
