July 23, 2025   16:18:28
Differential Pulse Voltammetry
File: e:\Data Source:  Experiment
Instrument Model:  CHI620E
Header: 
Note: 

Init E (V) = 0
Final E (V) = 1
Incr E (V) = 0.004
Amplitude (V) = 0.05
Pulse Width (sec) = 0.05
Sample Width (sec) = 0.0167
Pulse Period (sec) = 0.5
Quiet Time (sec) = 2
Sensitivity (A/V) = 0.01

Results:

Channel 1:
Ep = 0.572V
ip = 2.293e-5A
Ap = 1.983e-6VA

Potential/V, Current/A

0.004, 2.354e-7
0.008, 3.885e-7
0.012, 5.297e-7
0.016, 4.709e-7
0.020, 5.062e-7
0.024, 4.238e-7
0.028, 4.356e-7
0.032, 5.297e-7
0.036, 4.591e-7
0.040, 3.649e-7
0.044, 5.651e-7
0.048, 5.180e-7
0.052, 4.591e-7
0.056, 4.709e-7
0.060, 4.473e-7
0.064, 3.767e-7
0.068, 3.296e-7
0.072, 3.767e-7
0.076, 5.415e-7
0.080, 3.178e-7
0.084, 4.709e-7
0.088, 3.532e-7
0.092, 4.238e-7
0.096, 4.002e-7
0.100, 3.767e-7
0.104, 2.708e-7
0.108, 3.767e-7
0.112, 3.885e-7
0.116, 4.591e-7
0.120, 2.354e-7
0.124, 3.414e-7
0.128, 4.120e-7
0.132, 3.767e-7
0.136, 4.238e-7
0.140, 4.356e-7
0.144, 3.532e-7
0.148, 4.356e-7
0.152, 2.001e-7
0.156, 3.061e-7
0.160, 3.532e-7
0.164, 2.708e-7
0.168, 4.002e-7
0.172, 3.767e-7
0.176, 4.120e-7
0.180, 4.002e-7
0.184, 3.061e-7
0.188, 2.943e-7
0.192, 4.120e-7
0.196, 3.885e-7
0.200, 3.885e-7
0.204, 3.414e-7
0.208, 4.356e-7
0.212, 4.238e-7
0.216, 2.001e-7
0.220, 4.591e-7
0.224, 3.767e-7
0.228, 2.825e-7
0.232, 3.178e-7
0.236, 4.473e-7
0.240, 4.709e-7
0.244, 3.296e-7
0.248, 2.472e-7
0.252, 2.943e-7
0.256, 4.002e-7
0.260, 1.530e-7
0.264, 2.943e-7
0.268, 3.649e-7
0.272, 4.709e-7
0.276, 3.532e-7
0.280, 3.885e-7
0.284, 4.709e-7
0.288, 4.591e-7
0.292, 2.472e-7
0.296, 5.062e-7
0.300, 4.120e-7
0.304, 3.414e-7
0.308, 3.414e-7
0.312, 2.590e-7
0.316, 4.944e-7
0.320, 3.649e-7
0.324, 3.767e-7
0.328, 2.708e-7
0.332, 4.356e-7
0.336, 4.120e-7
0.340, 4.944e-7
0.344, 3.649e-7
0.348, 4.002e-7
0.352, 3.767e-7
0.356, 4.473e-7
0.360, 4.238e-7
0.364, 5.297e-7
0.368, 4.944e-7
0.372, 4.120e-7
0.376, 4.709e-7
0.380, 5.651e-7
0.384, 4.709e-7
0.388, 4.238e-7
0.392, 4.944e-7
0.396, 6.475e-7
0.400, 6.121e-7
0.404, 6.121e-7
0.408, 6.239e-7
0.412, 6.592e-7
0.416, 4.120e-7
0.420, 5.768e-7
0.424, 5.886e-7
0.428, 6.475e-7
0.432, 6.121e-7
0.436, 5.768e-7
0.440, 4.827e-7
0.444, 6.828e-7
0.448, 5.651e-7
0.452, 6.004e-7
0.456, 6.710e-7
0.460, 6.475e-7
0.464, 6.592e-7
0.468, 5.768e-7
0.472, 6.828e-7
0.476, 7.181e-7
0.480, 6.828e-7
0.484, 7.534e-7
0.488, 7.652e-7
0.492, 8.358e-7
0.496, 1.036e-6
0.500, 1.177e-6
0.504, 1.354e-6
0.508, 1.660e-6
0.512, 2.190e-6
0.516, 3.237e-6
0.520, 5.274e-6
0.524, 7.416e-6
0.528, 8.299e-6
0.532, 8.829e-6
0.536, 1.008e-5
0.540, 1.180e-5
0.544, 1.382e-5
0.548, 1.569e-5
0.552, 1.765e-5
0.556, 2.012e-5
0.560, 2.303e-5
0.564, 2.579e-5
0.568, 2.705e-5
0.572, 2.729e-5
0.576, 2.649e-5
0.580, 2.537e-5
0.584, 2.409e-5
0.588, 2.287e-5
0.592, 2.177e-5
0.596, 2.094e-5
0.600, 2.002e-5
0.604, 1.920e-5
0.608, 1.821e-5
0.612, 1.762e-5
0.616, 1.705e-5
0.620, 1.645e-5
0.624, 1.593e-5
0.628, 1.541e-5
0.632, 1.500e-5
0.636, 1.466e-5
0.640, 1.430e-5
0.644, 1.387e-5
0.648, 1.363e-5
0.652, 1.331e-5
0.656, 1.310e-5
0.660, 1.288e-5
0.664, 1.257e-5
0.668, 1.234e-5
0.672, 1.203e-5
0.676, 1.183e-5
0.680, 1.174e-5
0.684, 1.162e-5
0.688, 1.147e-5
0.692, 1.125e-5
0.696, 1.088e-5
0.700, 1.098e-5
0.704, 1.081e-5
0.708, 1.070e-5
0.712, 1.054e-5
0.716, 1.061e-5
0.720, 1.041e-5
0.724, 1.030e-5
0.728, 1.011e-5
0.732, 1.011e-5
0.736, 9.841e-6
0.740, 9.747e-6
0.744, 9.606e-6
0.748, 9.677e-6
0.752, 9.641e-6
0.756, 9.594e-6
0.760, 9.512e-6
0.764, 9.394e-6
0.768, 9.335e-6
0.772, 9.206e-6
0.776, 9.253e-6
0.780, 9.206e-6
0.784, 9.100e-6
0.788, 9.029e-6
0.792, 8.970e-6
0.796, 8.864e-6
0.800, 8.805e-6
0.804, 8.617e-6
0.808, 8.629e-6
0.812, 8.558e-6
0.816, 8.287e-6
0.820, 8.358e-6
0.824, 8.205e-6
0.828, 8.252e-6
0.832, 8.064e-6
0.836, 8.028e-6
0.840, 7.970e-6
0.844, 7.993e-6
0.848, 7.840e-6
0.852, 7.652e-6
0.856, 7.605e-6
0.860, 7.558e-6
0.864, 7.593e-6
0.868, 7.652e-6
0.872, 7.452e-6
0.876, 7.310e-6
0.880, 7.475e-6
0.884, 7.310e-6
0.888, 7.299e-6
0.892, 7.287e-6
0.896, 7.310e-6
0.900, 7.204e-6
0.904, 7.275e-6
0.908, 7.393e-6
0.912, 7.310e-6
0.916, 7.346e-6
0.920, 7.087e-6
0.924, 7.369e-6
0.928, 7.452e-6
0.932, 7.310e-6
0.936, 7.381e-6
0.940, 7.499e-6
0.944, 7.334e-6
0.948, 7.381e-6
0.952, 7.322e-6
0.956, 7.452e-6
0.960, 7.511e-6
0.964, 7.393e-6
0.968, 7.405e-6
0.972, 7.369e-6
0.976, 7.546e-6
0.980, 7.428e-6
0.984, 7.369e-6
0.988, 7.546e-6
0.992, 7.487e-6
0.996, 7.463e-6
1.000, 7.487e-6
