July 24, 2025   18:39:07
Differential Pulse Voltammetry
File: e:\Data Source:  Experiment
Instrument Model:  CHI620E
Header: 
Note: 

Init E (V) = 0
Final E (V) = 1
Incr E (V) = 0.004
Amplitude (V) = 0.05
Pulse Width (sec) = 0.05
Sample Width (sec) = 0.0167
Pulse Period (sec) = 0.5
Quiet Time (sec) = 2
Sensitivity (A/V) = 0.01

Results:

Channel 1:
Ep = 0.624V
ip = 8.024e-6A
Ap = 6.823e-7VA

Potential/V, Current/A

0.004, 8.382e-6
0.008, 7.887e-6
0.012, 7.511e-6
0.016, 6.969e-6
0.020, 6.675e-6
0.024, 6.251e-6
0.028, 6.110e-6
0.032, 5.733e-6
0.036, 5.450e-6
0.040, 5.250e-6
0.044, 5.085e-6
0.048, 4.744e-6
0.052, 4.756e-6
0.056, 4.568e-6
0.060, 4.367e-6
0.064, 4.226e-6
0.068, 4.061e-6
0.072, 4.026e-6
0.076, 4.002e-6
0.080, 3.708e-6
0.084, 3.661e-6
0.088, 3.590e-6
0.092, 3.402e-6
0.096, 3.343e-6
0.100, 3.273e-6
0.104, 3.155e-6
0.108, 3.025e-6
0.112, 2.943e-6
0.116, 2.919e-6
0.120, 2.814e-6
0.124, 2.743e-6
0.128, 2.602e-6
0.132, 2.496e-6
0.136, 2.343e-6
0.140, 2.366e-6
0.144, 2.472e-6
0.148, 2.248e-6
0.152, 2.237e-6
0.156, 2.131e-6
0.160, 2.107e-6
0.164, 2.107e-6
0.168, 2.131e-6
0.172, 1.989e-6
0.176, 2.025e-6
0.180, 2.131e-6
0.184, 1.895e-6
0.188, 1.907e-6
0.192, 1.801e-6
0.196, 1.648e-6
0.200, 1.672e-6
0.204, 1.789e-6
0.208, 1.601e-6
0.212, 1.636e-6
0.216, 1.695e-6
0.220, 1.707e-6
0.224, 1.519e-6
0.228, 1.554e-6
0.232, 1.460e-6
0.236, 1.460e-6
0.240, 1.495e-6
0.244, 1.377e-6
0.248, 1.354e-6
0.252, 1.471e-6
0.256, 1.401e-6
0.260, 1.318e-6
0.264, 1.389e-6
0.268, 1.366e-6
0.272, 1.354e-6
0.276, 1.260e-6
0.280, 1.377e-6
0.284, 1.354e-6
0.288, 1.330e-6
0.292, 1.342e-6
0.296, 1.224e-6
0.300, 1.248e-6
0.304, 1.342e-6
0.308, 1.189e-6
0.312, 1.154e-6
0.316, 1.295e-6
0.320, 1.201e-6
0.324, 1.142e-6
0.328, 1.059e-6
0.332, 1.095e-6
0.336, 1.201e-6
0.340, 1.154e-6
0.344, 1.095e-6
0.348, 1.213e-6
0.352, 1.024e-6
0.356, 1.083e-6
0.360, 1.142e-6
0.364, 1.201e-6
0.368, 1.236e-6
0.372, 1.165e-6
0.376, 1.224e-6
0.380, 1.154e-6
0.384, 1.130e-6
0.388, 1.071e-6
0.392, 1.118e-6
0.396, 1.165e-6
0.400, 1.248e-6
0.404, 1.165e-6
0.408, 1.142e-6
0.412, 1.165e-6
0.416, 1.154e-6
0.420, 9.300e-7
0.424, 1.059e-6
0.428, 1.118e-6
0.432, 1.024e-6
0.436, 1.059e-6
0.440, 9.418e-7
0.444, 1.024e-6
0.448, 1.048e-6
0.452, 1.083e-6
0.456, 1.083e-6
0.460, 1.130e-6
0.464, 1.118e-6
0.468, 1.142e-6
0.472, 1.189e-6
0.476, 1.189e-6
0.480, 1.295e-6
0.484, 1.366e-6
0.488, 1.366e-6
0.492, 1.589e-6
0.496, 1.460e-6
0.500, 1.507e-6
0.504, 1.719e-6
0.508, 1.836e-6
0.512, 1.872e-6
0.516, 2.107e-6
0.520, 2.484e-6
0.524, 2.519e-6
0.528, 2.825e-6
0.532, 3.343e-6
0.536, 3.696e-6
0.540, 3.967e-6
0.544, 4.638e-6
0.548, 4.956e-6
0.552, 5.674e-6
0.556, 6.298e-6
0.560, 6.981e-6
0.564, 7.817e-6
0.568, 8.358e-6
0.572, 9.053e-6
0.576, 9.677e-6
0.580, 1.014e-5
0.584, 1.052e-5
0.588, 1.110e-5
0.592, 1.143e-5
0.596, 1.202e-5
0.600, 1.251e-5
0.604, 1.301e-5
0.608, 1.346e-5
0.612, 1.390e-5
0.616, 1.430e-5
0.620, 1.463e-5
0.624, 1.497e-5
0.628, 1.482e-5
0.632, 1.462e-5
0.636, 1.413e-5
0.640, 1.364e-5
0.644, 1.294e-5
0.648, 1.260e-5
0.652, 1.220e-5
0.656, 1.188e-5
0.660, 1.169e-5
0.664, 1.143e-5
0.668, 1.116e-5
0.672, 1.100e-5
0.676, 1.094e-5
0.680, 1.087e-5
0.684, 1.094e-5
0.688, 1.070e-5
0.692, 1.063e-5
0.696, 1.057e-5
0.700, 1.054e-5
0.704, 1.063e-5
0.708, 1.041e-5
0.712, 1.044e-5
0.716, 1.048e-5
0.720, 1.048e-5
0.724, 1.024e-5
0.728, 1.031e-5
0.732, 1.044e-5
0.736, 1.025e-5
0.740, 1.023e-5
0.744, 1.012e-5
0.748, 1.005e-5
0.752, 9.971e-6
0.756, 9.888e-6
0.760, 9.759e-6
0.764, 9.735e-6
0.768, 9.453e-6
0.772, 9.382e-6
0.776, 9.394e-6
0.780, 9.312e-6
0.784, 9.147e-6
0.788, 9.064e-6
0.792, 9.041e-6
0.796, 8.888e-6
0.800, 8.676e-6
0.804, 8.464e-6
0.808, 8.440e-6
0.812, 8.382e-6
0.816, 8.346e-6
0.820, 8.134e-6
0.824, 7.899e-6
0.828, 7.758e-6
0.832, 7.840e-6
0.836, 7.734e-6
0.840, 7.581e-6
0.844, 7.616e-6
0.848, 7.546e-6
0.852, 7.346e-6
0.856, 7.263e-6
0.860, 7.287e-6
0.864, 7.263e-6
0.868, 7.169e-6
0.872, 7.169e-6
0.876, 7.193e-6
0.880, 7.146e-6
0.884, 7.028e-6
0.888, 6.851e-6
0.892, 7.087e-6
0.896, 6.875e-6
0.900, 7.040e-6
0.904, 7.016e-6
0.908, 6.957e-6
0.912, 6.863e-6
0.916, 6.981e-6
0.920, 6.910e-6
0.924, 7.063e-6
0.928, 7.016e-6
0.932, 7.040e-6
0.936, 7.075e-6
0.940, 7.204e-6
0.944, 7.204e-6
0.948, 7.346e-6
0.952, 7.240e-6
0.956, 7.216e-6
0.960, 7.252e-6
0.964, 7.181e-6
0.968, 7.322e-6
0.972, 7.346e-6
0.976, 7.416e-6
0.980, 7.440e-6
0.984, 7.357e-6
0.988, 7.310e-6
0.992, 7.393e-6
0.996, 7.275e-6
1.000, 7.440e-6
