July 22, 2025   21:52:33
Differential Pulse Voltammetry
File: e:\Data Source:  Experiment
Instrument Model:  CHI620E
Header: 
Note: 

Init E (V) = 0
Final E (V) = 1
Incr E (V) = 0.004
Amplitude (V) = 0.05
Pulse Width (sec) = 0.05
Sample Width (sec) = 0.0167
Pulse Period (sec) = 0.5
Quiet Time (sec) = 2
Sensitivity (A/V) = 0.01

Results:

Channel 1:
Ep = 0.572V
ip = 2.197e-5A
Ap = 2.026e-6VA

Potential/V, Current/A

0.004, 1.295e-7
0.008, 1.295e-7
0.012, 2.237e-7
0.016, 2.472e-7
0.020, 2.119e-7
0.024, 1.648e-7
0.028, 3.178e-7
0.032, 9.417e-8
0.036, 2.237e-7
0.040, 9.418e-8
0.044, 1.648e-7
0.048, 1.177e-7
0.052, 2.943e-7
0.056, 2.354e-8
0.060, 2.943e-7
0.064, 2.237e-7
0.068, 5.886e-8
0.072, 3.532e-8
0.076, 1.530e-7
0.080, 1.295e-7
0.084, 9.418e-8
0.088, 7.063e-8
0.092, 3.531e-8
0.096, 1.177e-7
0.100, 1.884e-7
0.104, 1.059e-7
0.108, 1.295e-7
0.112, 1.177e-7
0.116, 4.709e-8
0.120, 0.000e+0
0.124, 1.648e-7
0.128, 1.177e-7
0.132, 9.418e-8
0.136, 3.532e-8
0.140, 1.413e-7
0.144, 7.063e-8
0.148, 1.884e-7
0.152, -1.178e-8
0.156, 4.709e-8
0.160, 1.884e-7
0.164, 1.766e-7
0.168, 5.886e-8
0.172, 1.295e-7
0.176, 1.766e-7
0.180, 1.177e-7
0.184, 3.532e-8
0.188, 5.886e-8
0.192, 1.059e-7
0.196, 7.063e-8
0.200, 1.295e-7
0.204, 1.530e-7
0.208, 1.413e-7
0.212, 1.295e-7
0.216, -2.354e-8
0.220, 1.884e-7
0.224, 2.001e-7
0.228, 1.059e-7
0.232, 1.295e-7
0.236, 1.884e-7
0.240, 1.177e-7
0.244, 2.354e-8
0.248, 9.418e-8
0.252, 2.825e-7
0.256, 2.119e-7
0.260, -5.886e-8
0.264, 1.059e-7
0.268, 2.119e-7
0.272, 2.119e-7
0.276, 1.177e-7
0.280, 2.472e-7
0.284, 2.119e-7
0.288, 9.417e-8
0.292, 1.530e-7
0.296, 1.413e-7
0.300, 1.413e-7
0.304, 3.414e-7
0.308, 1.530e-7
0.312, 1.413e-7
0.316, 2.708e-7
0.320, 2.354e-7
0.324, 9.418e-8
0.328, 1.884e-7
0.332, 2.001e-7
0.336, 2.472e-7
0.340, 1.766e-7
0.344, 3.532e-7
0.348, 1.413e-7
0.352, 3.767e-7
0.356, 1.648e-7
0.360, 2.001e-7
0.364, 3.885e-7
0.368, 3.178e-7
0.372, 3.296e-7
0.376, 2.472e-7
0.380, 2.354e-7
0.384, 4.473e-7
0.388, 3.178e-7
0.392, 3.296e-7
0.396, 4.002e-7
0.400, 3.532e-7
0.404, 4.591e-7
0.408, 4.002e-7
0.412, 3.532e-7
0.416, 4.002e-7
0.420, 3.296e-7
0.424, 4.120e-7
0.428, 3.649e-7
0.432, 4.473e-7
0.436, 5.062e-7
0.440, 3.414e-7
0.444, 4.473e-7
0.448, 4.002e-7
0.452, 4.356e-7
0.456, 5.533e-7
0.460, 6.475e-7
0.464, 8.240e-7
0.468, 1.118e-6
0.472, 1.636e-6
0.476, 2.296e-6
0.480, 3.049e-6
0.484, 3.543e-6
0.488, 4.309e-6
0.492, 4.779e-6
0.496, 5.474e-6
0.500, 5.639e-6
0.504, 5.403e-6
0.508, 5.462e-6
0.512, 5.427e-6
0.516, 5.309e-6
0.520, 5.674e-6
0.524, 6.216e-6
0.528, 6.628e-6
0.532, 6.910e-6
0.536, 7.463e-6
0.540, 8.182e-6
0.544, 9.100e-6
0.548, 1.064e-5
0.552, 1.343e-5
0.556, 1.706e-5
0.560, 2.095e-5
0.564, 2.400e-5
0.568, 2.558e-5
0.572, 2.606e-5
0.576, 2.531e-5
0.580, 2.417e-5
0.584, 2.319e-5
0.588, 2.195e-5
0.592, 2.097e-5
0.596, 2.006e-5
0.600, 1.921e-5
0.604, 1.848e-5
0.608, 1.769e-5
0.612, 1.719e-5
0.616, 1.661e-5
0.620, 1.617e-5
0.624, 1.563e-5
0.628, 1.504e-5
0.632, 1.475e-5
0.636, 1.435e-5
0.640, 1.399e-5
0.644, 1.360e-5
0.648, 1.331e-5
0.652, 1.302e-5
0.656, 1.281e-5
0.660, 1.250e-5
0.664, 1.215e-5
0.668, 1.200e-5
0.672, 1.188e-5
0.676, 1.148e-5
0.680, 1.145e-5
0.684, 1.129e-5
0.688, 1.110e-5
0.692, 1.094e-5
0.696, 1.085e-5
0.700, 1.067e-5
0.704, 1.057e-5
0.708, 1.039e-5
0.712, 1.021e-5
0.716, 1.017e-5
0.720, 1.012e-5
0.724, 9.936e-6
0.728, 9.865e-6
0.732, 9.771e-6
0.736, 9.688e-6
0.740, 9.429e-6
0.744, 9.476e-6
0.748, 9.394e-6
0.752, 9.276e-6
0.756, 9.100e-6
0.760, 9.076e-6
0.764, 9.076e-6
0.768, 9.029e-6
0.772, 8.829e-6
0.776, 9.006e-6
0.780, 8.876e-6
0.784, 8.735e-6
0.788, 8.782e-6
0.792, 8.629e-6
0.796, 8.582e-6
0.800, 8.570e-6
0.804, 8.393e-6
0.808, 8.229e-6
0.812, 8.205e-6
0.816, 8.076e-6
0.820, 8.123e-6
0.824, 7.864e-6
0.828, 8.017e-6
0.832, 7.875e-6
0.836, 7.770e-6
0.840, 7.734e-6
0.844, 7.664e-6
0.848, 7.628e-6
0.852, 7.581e-6
0.856, 7.487e-6
0.860, 7.499e-6
0.864, 7.357e-6
0.868, 7.381e-6
0.872, 7.275e-6
0.876, 7.169e-6
0.880, 7.357e-6
0.884, 7.181e-6
0.888, 7.075e-6
0.892, 7.110e-6
0.896, 7.110e-6
0.900, 7.016e-6
0.904, 7.169e-6
0.908, 7.216e-6
0.912, 6.969e-6
0.916, 7.016e-6
0.920, 7.016e-6
0.924, 7.075e-6
0.928, 7.134e-6
0.932, 7.134e-6
0.936, 7.169e-6
0.940, 6.993e-6
0.944, 6.945e-6
0.948, 7.051e-6
0.952, 6.981e-6
0.956, 7.087e-6
0.960, 6.957e-6
0.964, 6.851e-6
0.968, 6.957e-6
0.972, 7.040e-6
0.976, 7.075e-6
0.980, 6.910e-6
0.984, 6.993e-6
0.988, 7.122e-6
0.992, 6.945e-6
0.996, 7.122e-6
1.000, 7.075e-6
