July 22, 2025   21:59:03
Differential Pulse Voltammetry
File: e:\Data Source:  Experiment
Instrument Model:  CHI620E
Header: 
Note: 

Init E (V) = 0
Final E (V) = 1
Incr E (V) = 0.004
Amplitude (V) = 0.05
Pulse Width (sec) = 0.05
Sample Width (sec) = 0.0167
Pulse Period (sec) = 0.5
Quiet Time (sec) = 2
Sensitivity (A/V) = 0.01

Results:

Channel 1:
Ep = 0.528V
ip = 2.103e-5A
Ap = 2.959e-6VA

Potential/V, Current/A

0.004, 1.216e-5
0.008, 1.090e-5
0.012, 1.011e-5
0.016, 9.488e-6
0.020, 8.794e-6
0.024, 8.476e-6
0.028, 8.087e-6
0.032, 7.675e-6
0.036, 7.440e-6
0.040, 6.993e-6
0.044, 6.675e-6
0.048, 6.427e-6
0.052, 6.204e-6
0.056, 5.827e-6
0.060, 5.709e-6
0.064, 5.556e-6
0.068, 5.191e-6
0.072, 5.109e-6
0.076, 5.038e-6
0.080, 4.732e-6
0.084, 4.697e-6
0.088, 4.391e-6
0.092, 4.473e-6
0.096, 4.214e-6
0.100, 4.261e-6
0.104, 4.061e-6
0.108, 3.991e-6
0.112, 3.955e-6
0.116, 3.708e-6
0.120, 3.685e-6
0.124, 3.685e-6
0.128, 3.743e-6
0.132, 3.473e-6
0.136, 3.402e-6
0.140, 3.402e-6
0.144, 3.296e-6
0.148, 3.131e-6
0.152, 3.226e-6
0.156, 3.143e-6
0.160, 3.155e-6
0.164, 3.167e-6
0.168, 3.084e-6
0.172, 2.990e-6
0.176, 3.049e-6
0.180, 2.872e-6
0.184, 2.790e-6
0.188, 2.908e-6
0.192, 2.766e-6
0.196, 2.625e-6
0.200, 2.778e-6
0.204, 2.790e-6
0.208, 2.637e-6
0.212, 2.472e-6
0.216, 2.602e-6
0.220, 2.519e-6
0.224, 2.613e-6
0.228, 2.413e-6
0.232, 2.472e-6
0.236, 2.401e-6
0.240, 2.413e-6
0.244, 2.413e-6
0.248, 2.190e-6
0.252, 2.331e-6
0.256, 2.178e-6
0.260, 2.213e-6
0.264, 2.225e-6
0.268, 2.201e-6
0.272, 2.190e-6
0.276, 2.260e-6
0.280, 2.072e-6
0.284, 2.201e-6
0.288, 2.201e-6
0.292, 2.095e-6
0.296, 1.989e-6
0.300, 2.178e-6
0.304, 1.978e-6
0.308, 1.942e-6
0.312, 1.942e-6
0.316, 2.084e-6
0.320, 1.942e-6
0.324, 1.848e-6
0.328, 1.978e-6
0.332, 1.954e-6
0.336, 1.978e-6
0.340, 1.895e-6
0.344, 1.872e-6
0.348, 1.707e-6
0.352, 1.895e-6
0.356, 1.730e-6
0.360, 1.778e-6
0.364, 1.895e-6
0.368, 1.813e-6
0.372, 1.836e-6
0.376, 1.789e-6
0.380, 2.095e-6
0.384, 1.966e-6
0.388, 2.013e-6
0.392, 2.178e-6
0.396, 2.107e-6
0.400, 2.190e-6
0.404, 2.378e-6
0.408, 2.590e-6
0.412, 2.719e-6
0.416, 2.696e-6
0.420, 3.143e-6
0.424, 3.390e-6
0.428, 3.814e-6
0.432, 4.261e-6
0.436, 4.850e-6
0.440, 5.627e-6
0.444, 6.522e-6
0.448, 7.487e-6
0.452, 8.464e-6
0.456, 9.429e-6
0.460, 1.035e-5
0.464, 1.104e-5
0.468, 1.157e-5
0.472, 1.216e-5
0.476, 1.273e-5
0.480, 1.320e-5
0.484, 1.383e-5
0.488, 1.466e-5
0.492, 1.542e-5
0.496, 1.655e-5
0.500, 1.769e-5
0.504, 1.912e-5
0.508, 2.044e-5
0.512, 2.181e-5
0.516, 2.298e-5
0.520, 2.440e-5
0.524, 2.509e-5
0.528, 2.535e-5
0.532, 2.535e-5
0.536, 2.513e-5
0.540, 2.492e-5
0.544, 2.427e-5
0.548, 2.365e-5
0.552, 2.317e-5
0.556, 2.264e-5
0.560, 2.190e-5
0.564, 2.126e-5
0.568, 2.061e-5
0.572, 2.006e-5
0.576, 1.948e-5
0.580, 1.882e-5
0.584, 1.826e-5
0.588, 1.794e-5
0.592, 1.741e-5
0.596, 1.693e-5
0.600, 1.636e-5
0.604, 1.601e-5
0.608, 1.567e-5
0.612, 1.533e-5
0.616, 1.480e-5
0.620, 1.454e-5
0.624, 1.414e-5
0.628, 1.391e-5
0.632, 1.349e-5
0.636, 1.327e-5
0.640, 1.300e-5
0.644, 1.263e-5
0.648, 1.224e-5
0.652, 1.215e-5
0.656, 1.196e-5
0.660, 1.182e-5
0.664, 1.147e-5
0.668, 1.132e-5
0.672, 1.108e-5
0.676, 1.089e-5
0.680, 1.071e-5
0.684, 1.057e-5
0.688, 1.055e-5
0.692, 1.016e-5
0.696, 1.014e-5
0.700, 9.971e-6
0.704, 9.818e-6
0.708, 9.712e-6
0.712, 9.618e-6
0.716, 9.418e-6
0.720, 9.335e-6
0.724, 9.253e-6
0.728, 9.064e-6
0.732, 8.911e-6
0.736, 8.947e-6
0.740, 8.829e-6
0.744, 8.676e-6
0.748, 8.582e-6
0.752, 8.605e-6
0.756, 8.393e-6
0.760, 8.229e-6
0.764, 8.193e-6
0.768, 8.182e-6
0.772, 8.005e-6
0.776, 8.076e-6
0.780, 8.040e-6
0.784, 7.958e-6
0.788, 7.828e-6
0.792, 7.687e-6
0.796, 7.781e-6
0.800, 7.734e-6
0.804, 7.628e-6
0.808, 7.475e-6
0.812, 7.569e-6
0.816, 7.357e-6
0.820, 7.169e-6
0.824, 7.134e-6
0.828, 7.169e-6
0.832, 7.146e-6
0.836, 7.098e-6
0.840, 6.981e-6
0.844, 6.993e-6
0.848, 6.969e-6
0.852, 6.957e-6
0.856, 6.804e-6
0.860, 6.969e-6
0.864, 6.898e-6
0.868, 6.863e-6
0.872, 6.663e-6
0.876, 6.781e-6
0.880, 6.663e-6
0.884, 6.710e-6
0.888, 6.675e-6
0.892, 6.875e-6
0.896, 6.639e-6
0.900, 6.745e-6
0.904, 6.710e-6
0.908, 6.769e-6
0.912, 6.816e-6
0.916, 6.934e-6
0.920, 6.851e-6
0.924, 6.887e-6
0.928, 6.863e-6
0.932, 6.769e-6
0.936, 6.840e-6
0.940, 6.863e-6
0.944, 6.934e-6
0.948, 6.910e-6
0.952, 6.945e-6
0.956, 6.898e-6
0.960, 6.910e-6
0.964, 6.993e-6
0.968, 6.828e-6
0.972, 6.910e-6
0.976, 6.981e-6
0.980, 7.110e-6
0.984, 7.004e-6
0.988, 7.098e-6
0.992, 7.016e-6
0.996, 7.122e-6
1.000, 7.110e-6
