July 22, 2025   23:18:19
Differential Pulse Voltammetry
File: e:\Data Source:  Experiment
Instrument Model:  CHI620E
Header: 
Note: 

Init E (V) = 0
Final E (V) = 1
Incr E (V) = 0.004
Amplitude (V) = 0.05
Pulse Width (sec) = 0.05
Sample Width (sec) = 0.0167
Pulse Period (sec) = 0.5
Quiet Time (sec) = 2
Sensitivity (A/V) = 0.01

Results:

Channel 1:
Ep = 0.544V
ip = 1.830e-5A
Ap = 1.777e-6VA

Potential/V, Current/A

0.004, 1.313e-5
0.008, 1.190e-5
0.012, 1.121e-5
0.016, 1.068e-5
0.020, 1.010e-5
0.024, 9.629e-6
0.028, 9.265e-6
0.032, 9.053e-6
0.036, 8.652e-6
0.040, 8.393e-6
0.044, 8.217e-6
0.048, 7.993e-6
0.052, 7.699e-6
0.056, 7.310e-6
0.060, 7.346e-6
0.064, 7.016e-6
0.068, 6.840e-6
0.072, 6.651e-6
0.076, 6.557e-6
0.080, 6.498e-6
0.084, 6.110e-6
0.088, 5.968e-6
0.092, 5.874e-6
0.096, 5.756e-6
0.100, 5.509e-6
0.104, 5.592e-6
0.108, 5.439e-6
0.112, 5.180e-6
0.116, 5.097e-6
0.120, 4.968e-6
0.124, 4.862e-6
0.128, 4.803e-6
0.132, 4.803e-6
0.136, 4.673e-6
0.140, 4.579e-6
0.144, 4.568e-6
0.148, 4.426e-6
0.152, 4.309e-6
0.156, 4.320e-6
0.160, 4.250e-6
0.164, 4.144e-6
0.168, 4.167e-6
0.172, 4.156e-6
0.176, 4.156e-6
0.180, 4.002e-6
0.184, 3.944e-6
0.188, 3.979e-6
0.192, 3.932e-6
0.196, 3.791e-6
0.200, 3.791e-6
0.204, 3.814e-6
0.208, 3.696e-6
0.212, 3.673e-6
0.216, 3.590e-6
0.220, 3.532e-6
0.224, 3.638e-6
0.228, 3.485e-6
0.232, 3.461e-6
0.236, 3.461e-6
0.240, 3.496e-6
0.244, 3.461e-6
0.248, 3.249e-6
0.252, 3.437e-6
0.256, 3.331e-6
0.260, 3.096e-6
0.264, 3.284e-6
0.268, 3.273e-6
0.272, 3.167e-6
0.276, 3.237e-6
0.280, 3.108e-6
0.284, 3.049e-6
0.288, 3.096e-6
0.292, 3.096e-6
0.296, 3.108e-6
0.300, 3.072e-6
0.304, 3.061e-6
0.308, 2.931e-6
0.312, 2.802e-6
0.316, 2.908e-6
0.320, 2.778e-6
0.324, 2.813e-6
0.328, 2.766e-6
0.332, 2.978e-6
0.336, 2.802e-6
0.340, 2.778e-6
0.344, 2.813e-6
0.348, 2.766e-6
0.352, 2.743e-6
0.356, 2.813e-6
0.360, 2.696e-6
0.364, 2.743e-6
0.368, 2.743e-6
0.372, 2.660e-6
0.376, 2.625e-6
0.380, 2.637e-6
0.384, 2.672e-6
0.388, 2.543e-6
0.392, 2.696e-6
0.396, 2.578e-6
0.400, 2.660e-6
0.404, 2.672e-6
0.408, 2.861e-6
0.412, 2.696e-6
0.416, 2.696e-6
0.420, 2.696e-6
0.424, 2.814e-6
0.428, 2.931e-6
0.432, 2.943e-6
0.436, 3.084e-6
0.440, 3.226e-6
0.444, 3.673e-6
0.448, 3.720e-6
0.452, 3.944e-6
0.456, 4.297e-6
0.460, 4.756e-6
0.464, 5.215e-6
0.468, 5.827e-6
0.472, 6.486e-6
0.476, 7.310e-6
0.480, 8.370e-6
0.484, 9.441e-6
0.488, 1.067e-5
0.492, 1.197e-5
0.496, 1.323e-5
0.500, 1.430e-5
0.504, 1.527e-5
0.508, 1.654e-5
0.512, 1.768e-5
0.516, 1.868e-5
0.520, 2.007e-5
0.524, 2.137e-5
0.528, 2.271e-5
0.532, 2.429e-5
0.536, 2.549e-5
0.540, 2.633e-5
0.544, 2.672e-5
0.548, 2.669e-5
0.552, 2.628e-5
0.556, 2.576e-5
0.560, 2.518e-5
0.564, 2.452e-5
0.568, 2.374e-5
0.572, 2.321e-5
0.576, 2.277e-5
0.580, 2.197e-5
0.584, 2.144e-5
0.588, 2.097e-5
0.592, 2.024e-5
0.596, 1.985e-5
0.600, 1.928e-5
0.604, 1.884e-5
0.608, 1.828e-5
0.612, 1.787e-5
0.616, 1.747e-5
0.620, 1.696e-5
0.624, 1.674e-5
0.628, 1.635e-5
0.632, 1.575e-5
0.636, 1.592e-5
0.640, 1.546e-5
0.644, 1.528e-5
0.648, 1.509e-5
0.652, 1.490e-5
0.656, 1.481e-5
0.660, 1.456e-5
0.664, 1.446e-5
0.668, 1.436e-5
0.672, 1.407e-5
0.676, 1.414e-5
0.680, 1.401e-5
0.684, 1.395e-5
0.688, 1.386e-5
0.692, 1.362e-5
0.696, 1.356e-5
0.700, 1.351e-5
0.704, 1.337e-5
0.708, 1.317e-5
0.712, 1.316e-5
0.716, 1.306e-5
0.720, 1.280e-5
0.724, 1.267e-5
0.728, 1.264e-5
0.732, 1.235e-5
0.736, 1.220e-5
0.740, 1.191e-5
0.744, 1.185e-5
0.748, 1.162e-5
0.752, 1.147e-5
0.756, 1.131e-5
0.760, 1.115e-5
0.764, 1.092e-5
0.768, 1.075e-5
0.772, 1.035e-5
0.776, 1.025e-5
0.780, 1.016e-5
0.784, 9.947e-6
0.788, 9.865e-6
0.792, 9.712e-6
0.796, 9.465e-6
0.800, 9.265e-6
0.804, 9.147e-6
0.808, 8.982e-6
0.812, 8.982e-6
0.816, 8.864e-6
0.820, 8.664e-6
0.824, 8.464e-6
0.828, 8.511e-6
0.832, 8.323e-6
0.836, 8.193e-6
0.840, 8.170e-6
0.844, 8.099e-6
0.848, 7.958e-6
0.852, 8.064e-6
0.856, 7.864e-6
0.860, 7.852e-6
0.864, 7.793e-6
0.868, 7.781e-6
0.872, 7.711e-6
0.876, 7.828e-6
0.880, 7.699e-6
0.884, 7.722e-6
0.888, 7.581e-6
0.892, 7.593e-6
0.896, 7.734e-6
0.900, 7.605e-6
0.904, 7.605e-6
0.908, 7.722e-6
0.912, 7.864e-6
0.916, 7.746e-6
0.920, 7.817e-6
0.924, 7.875e-6
0.928, 7.970e-6
0.932, 7.887e-6
0.936, 7.911e-6
0.940, 8.052e-6
0.944, 8.040e-6
0.948, 8.099e-6
0.952, 8.099e-6
0.956, 8.193e-6
0.960, 8.264e-6
0.964, 8.240e-6
0.968, 8.229e-6
0.972, 8.323e-6
0.976, 8.370e-6
0.980, 8.405e-6
0.984, 8.499e-6
0.988, 8.641e-6
0.992, 8.476e-6
0.996, 8.688e-6
1.000, 8.841e-6
