July 24, 2025   10:39:34
Differential Pulse Voltammetry
File: e:\Data Source:  Experiment
Instrument Model:  CHI620E
Header: 
Note: 

Init E (V) = 0
Final E (V) = 1
Incr E (V) = 0.004
Amplitude (V) = 0.05
Pulse Width (sec) = 0.05
Sample Width (sec) = 0.0167
Pulse Period (sec) = 0.5
Quiet Time (sec) = 2
Sensitivity (A/V) = 0.01

Results:

Channel 1:
Ep = 0.584V
ip = 2.406e-5A
Ap = 3.127e-6VA

Potential/V, Current/A

0.004, 9.194e-6
0.008, 8.511e-6
0.012, 7.852e-6
0.016, 7.299e-6
0.020, 6.922e-6
0.024, 6.333e-6
0.028, 6.039e-6
0.032, 5.698e-6
0.036, 5.368e-6
0.040, 4.980e-6
0.044, 4.615e-6
0.048, 4.473e-6
0.052, 4.250e-6
0.056, 3.991e-6
0.060, 3.967e-6
0.064, 3.720e-6
0.068, 3.426e-6
0.072, 3.320e-6
0.076, 3.331e-6
0.080, 3.331e-6
0.084, 2.978e-6
0.088, 2.967e-6
0.092, 2.967e-6
0.096, 2.837e-6
0.100, 2.837e-6
0.104, 2.613e-6
0.108, 2.649e-6
0.112, 2.413e-6
0.116, 2.437e-6
0.120, 2.401e-6
0.124, 2.378e-6
0.128, 2.225e-6
0.132, 2.131e-6
0.136, 2.072e-6
0.140, 2.131e-6
0.144, 1.989e-6
0.148, 1.931e-6
0.152, 1.989e-6
0.156, 1.825e-6
0.160, 2.084e-6
0.164, 1.848e-6
0.168, 1.872e-6
0.172, 1.813e-6
0.176, 1.789e-6
0.180, 1.754e-6
0.184, 1.789e-6
0.188, 1.778e-6
0.192, 1.695e-6
0.196, 1.672e-6
0.200, 1.566e-6
0.204, 1.542e-6
0.208, 1.601e-6
0.212, 1.577e-6
0.216, 1.554e-6
0.220, 1.424e-6
0.224, 1.436e-6
0.228, 1.389e-6
0.232, 1.507e-6
0.236, 1.577e-6
0.240, 1.413e-6
0.244, 1.507e-6
0.248, 1.483e-6
0.252, 1.401e-6
0.256, 1.342e-6
0.260, 1.295e-6
0.264, 1.401e-6
0.268, 1.436e-6
0.272, 1.354e-6
0.276, 1.471e-6
0.280, 1.236e-6
0.284, 1.424e-6
0.288, 1.377e-6
0.292, 1.330e-6
0.296, 1.271e-6
0.300, 1.377e-6
0.304, 1.271e-6
0.308, 1.260e-6
0.312, 1.130e-6
0.316, 1.271e-6
0.320, 1.260e-6
0.324, 1.260e-6
0.328, 1.201e-6
0.332, 1.271e-6
0.336, 1.295e-6
0.340, 1.142e-6
0.344, 1.224e-6
0.348, 1.213e-6
0.352, 1.213e-6
0.356, 1.213e-6
0.360, 1.165e-6
0.364, 1.260e-6
0.368, 1.318e-6
0.372, 1.154e-6
0.376, 1.142e-6
0.380, 1.154e-6
0.384, 1.318e-6
0.388, 1.107e-6
0.392, 1.366e-6
0.396, 1.165e-6
0.400, 1.224e-6
0.404, 1.083e-6
0.408, 1.248e-6
0.412, 1.248e-6
0.416, 1.260e-6
0.420, 1.001e-6
0.424, 1.189e-6
0.428, 1.283e-6
0.432, 1.318e-6
0.436, 1.354e-6
0.440, 1.130e-6
0.444, 1.307e-6
0.448, 1.566e-6
0.452, 1.471e-6
0.456, 1.495e-6
0.460, 1.730e-6
0.464, 1.707e-6
0.468, 1.884e-6
0.472, 1.931e-6
0.476, 2.213e-6
0.480, 2.166e-6
0.484, 2.602e-6
0.488, 3.002e-6
0.492, 3.237e-6
0.496, 3.661e-6
0.500, 4.344e-6
0.504, 5.168e-6
0.508, 6.475e-6
0.512, 8.111e-6
0.516, 9.947e-6
0.520, 1.214e-5
0.524, 1.448e-5
0.528, 1.635e-5
0.532, 1.802e-5
0.536, 1.932e-5
0.540, 2.055e-5
0.544, 2.155e-5
0.548, 2.210e-5
0.552, 2.266e-5
0.556, 2.326e-5
0.560, 2.418e-5
0.564, 2.517e-5
0.568, 2.620e-5
0.572, 2.726e-5
0.576, 2.786e-5
0.580, 2.808e-5
0.584, 2.812e-5
0.588, 2.772e-5
0.592, 2.693e-5
0.596, 2.643e-5
0.600, 2.562e-5
0.604, 2.491e-5
0.608, 2.411e-5
0.612, 2.349e-5
0.616, 2.267e-5
0.620, 2.191e-5
0.624, 2.126e-5
0.628, 2.045e-5
0.632, 1.977e-5
0.636, 1.912e-5
0.640, 1.831e-5
0.644, 1.774e-5
0.648, 1.706e-5
0.652, 1.641e-5
0.656, 1.582e-5
0.660, 1.528e-5
0.664, 1.471e-5
0.668, 1.434e-5
0.672, 1.384e-5
0.676, 1.333e-5
0.680, 1.288e-5
0.684, 1.258e-5
0.688, 1.222e-5
0.692, 1.181e-5
0.696, 1.147e-5
0.700, 1.111e-5
0.704, 1.082e-5
0.708, 1.065e-5
0.712, 1.024e-5
0.716, 1.016e-5
0.720, 9.959e-6
0.724, 9.618e-6
0.728, 9.453e-6
0.732, 9.453e-6
0.736, 9.300e-6
0.740, 9.064e-6
0.744, 9.006e-6
0.748, 8.829e-6
0.752, 8.841e-6
0.756, 8.711e-6
0.760, 8.488e-6
0.764, 8.488e-6
0.768, 8.452e-6
0.772, 8.205e-6
0.776, 8.217e-6
0.780, 8.264e-6
0.784, 8.111e-6
0.788, 8.134e-6
0.792, 8.111e-6
0.796, 8.005e-6
0.800, 7.946e-6
0.804, 7.958e-6
0.808, 7.899e-6
0.812, 7.911e-6
0.816, 7.852e-6
0.820, 7.734e-6
0.824, 7.699e-6
0.828, 7.722e-6
0.832, 7.746e-6
0.836, 7.534e-6
0.840, 7.546e-6
0.844, 7.558e-6
0.848, 7.499e-6
0.852, 7.511e-6
0.856, 7.334e-6
0.860, 7.310e-6
0.864, 7.346e-6
0.868, 7.369e-6
0.872, 7.346e-6
0.876, 7.357e-6
0.880, 7.334e-6
0.884, 7.310e-6
0.888, 7.181e-6
0.892, 7.287e-6
0.896, 7.157e-6
0.900, 7.028e-6
0.904, 7.110e-6
0.908, 7.098e-6
0.912, 6.945e-6
0.916, 6.934e-6
0.920, 6.957e-6
0.924, 7.004e-6
0.928, 6.957e-6
0.932, 6.863e-6
0.936, 6.945e-6
0.940, 6.981e-6
0.944, 6.898e-6
0.948, 6.887e-6
0.952, 6.698e-6
0.956, 6.887e-6
0.960, 6.734e-6
0.964, 6.804e-6
0.968, 6.851e-6
0.972, 6.675e-6
0.976, 6.745e-6
0.980, 6.722e-6
0.984, 6.745e-6
0.988, 6.969e-6
0.992, 6.863e-6
0.996, 6.734e-6
1.000, 6.769e-6
