July 24, 2025   10:41:44
Differential Pulse Voltammetry
File: e:\Data Source:  Experiment
Instrument Model:  CHI620E
Header: 
Note: 

Init E (V) = 0
Final E (V) = 1
Incr E (V) = 0.004
Amplitude (V) = 0.05
Pulse Width (sec) = 0.05
Sample Width (sec) = 0.0167
Pulse Period (sec) = 0.5
Quiet Time (sec) = 2
Sensitivity (A/V) = 0.01

Results:

Channel 1:
Ep = 0.580V
ip = 2.526e-5A
Ap = 3.160e-6VA

Potential/V, Current/A

0.004, 9.488e-6
0.008, 8.523e-6
0.012, 7.828e-6
0.016, 7.322e-6
0.020, 6.769e-6
0.024, 6.322e-6
0.028, 6.027e-6
0.032, 5.686e-6
0.036, 5.227e-6
0.040, 5.097e-6
0.044, 4.791e-6
0.048, 4.485e-6
0.052, 4.120e-6
0.056, 3.991e-6
0.060, 3.838e-6
0.064, 3.649e-6
0.068, 3.379e-6
0.072, 3.390e-6
0.076, 3.367e-6
0.080, 2.990e-6
0.084, 3.072e-6
0.088, 2.755e-6
0.092, 2.625e-6
0.096, 2.743e-6
0.100, 2.696e-6
0.104, 2.566e-6
0.108, 2.472e-6
0.112, 2.531e-6
0.116, 2.354e-6
0.120, 2.248e-6
0.124, 2.201e-6
0.128, 2.237e-6
0.132, 1.978e-6
0.136, 2.048e-6
0.140, 2.084e-6
0.144, 1.895e-6
0.148, 1.860e-6
0.152, 1.836e-6
0.156, 1.836e-6
0.160, 1.907e-6
0.164, 1.801e-6
0.168, 1.742e-6
0.172, 1.801e-6
0.176, 1.754e-6
0.180, 1.660e-6
0.184, 1.566e-6
0.188, 1.554e-6
0.192, 1.754e-6
0.196, 1.448e-6
0.200, 1.577e-6
0.204, 1.483e-6
0.208, 1.436e-6
0.212, 1.460e-6
0.216, 1.542e-6
0.220, 1.401e-6
0.224, 1.342e-6
0.228, 1.401e-6
0.232, 1.413e-6
0.236, 1.354e-6
0.240, 1.366e-6
0.244, 1.354e-6
0.248, 1.330e-6
0.252, 1.342e-6
0.256, 1.354e-6
0.260, 1.189e-6
0.264, 1.283e-6
0.268, 1.224e-6
0.272, 1.236e-6
0.276, 1.189e-6
0.280, 1.083e-6
0.284, 1.213e-6
0.288, 1.118e-6
0.292, 1.213e-6
0.296, 1.248e-6
0.300, 1.177e-6
0.304, 1.154e-6
0.308, 1.165e-6
0.312, 1.248e-6
0.316, 1.283e-6
0.320, 1.201e-6
0.324, 1.012e-6
0.328, 1.165e-6
0.332, 1.189e-6
0.336, 1.071e-6
0.340, 1.165e-6
0.344, 1.107e-6
0.348, 1.095e-6
0.352, 1.165e-6
0.356, 1.083e-6
0.360, 1.059e-6
0.364, 1.224e-6
0.368, 1.142e-6
0.372, 1.071e-6
0.376, 1.118e-6
0.380, 1.201e-6
0.384, 1.271e-6
0.388, 1.048e-6
0.392, 1.142e-6
0.396, 1.118e-6
0.400, 1.177e-6
0.404, 1.095e-6
0.408, 1.107e-6
0.412, 1.213e-6
0.416, 1.283e-6
0.420, 1.118e-6
0.424, 1.071e-6
0.428, 1.236e-6
0.432, 1.154e-6
0.436, 1.118e-6
0.440, 1.189e-6
0.444, 1.224e-6
0.448, 1.118e-6
0.452, 1.189e-6
0.456, 1.307e-6
0.460, 1.483e-6
0.464, 1.554e-6
0.468, 1.566e-6
0.472, 1.601e-6
0.476, 1.672e-6
0.480, 1.789e-6
0.484, 1.966e-6
0.488, 2.190e-6
0.492, 2.319e-6
0.496, 2.637e-6
0.500, 2.837e-6
0.504, 3.331e-6
0.508, 3.944e-6
0.512, 4.885e-6
0.516, 5.921e-6
0.520, 7.758e-6
0.524, 1.003e-5
0.528, 1.220e-5
0.532, 1.448e-5
0.536, 1.649e-5
0.540, 1.836e-5
0.544, 2.008e-5
0.548, 2.142e-5
0.552, 2.270e-5
0.556, 2.389e-5
0.560, 2.504e-5
0.564, 2.613e-5
0.568, 2.705e-5
0.572, 2.808e-5
0.576, 2.875e-5
0.580, 2.888e-5
0.584, 2.870e-5
0.588, 2.804e-5
0.592, 2.735e-5
0.596, 2.665e-5
0.600, 2.589e-5
0.604, 2.523e-5
0.608, 2.439e-5
0.612, 2.364e-5
0.616, 2.301e-5
0.620, 2.235e-5
0.624, 2.151e-5
0.628, 2.086e-5
0.632, 2.017e-5
0.636, 1.948e-5
0.640, 1.884e-5
0.644, 1.819e-5
0.648, 1.752e-5
0.652, 1.694e-5
0.656, 1.627e-5
0.660, 1.575e-5
0.664, 1.520e-5
0.668, 1.473e-5
0.672, 1.428e-5
0.676, 1.371e-5
0.680, 1.330e-5
0.684, 1.294e-5
0.688, 1.242e-5
0.692, 1.215e-5
0.696, 1.176e-5
0.700, 1.142e-5
0.704, 1.109e-5
0.708, 1.083e-5
0.712, 1.070e-5
0.716, 1.048e-5
0.720, 1.009e-5
0.724, 1.005e-5
0.728, 9.747e-6
0.732, 9.735e-6
0.736, 9.547e-6
0.740, 9.276e-6
0.744, 9.229e-6
0.748, 9.041e-6
0.752, 8.994e-6
0.756, 8.805e-6
0.760, 8.735e-6
0.764, 8.641e-6
0.768, 8.570e-6
0.772, 8.358e-6
0.776, 8.370e-6
0.780, 8.393e-6
0.784, 8.370e-6
0.788, 8.205e-6
0.792, 8.205e-6
0.796, 8.087e-6
0.800, 8.158e-6
0.804, 7.958e-6
0.808, 8.028e-6
0.812, 7.993e-6
0.816, 8.123e-6
0.820, 7.781e-6
0.824, 7.687e-6
0.828, 7.722e-6
0.832, 7.875e-6
0.836, 7.793e-6
0.840, 7.699e-6
0.844, 7.558e-6
0.848, 7.699e-6
0.852, 7.546e-6
0.856, 7.475e-6
0.860, 7.558e-6
0.864, 7.534e-6
0.868, 7.475e-6
0.872, 7.475e-6
0.876, 7.428e-6
0.880, 7.369e-6
0.884, 7.334e-6
0.888, 7.299e-6
0.892, 7.204e-6
0.896, 7.310e-6
0.900, 7.252e-6
0.904, 7.263e-6
0.908, 7.157e-6
0.912, 7.040e-6
0.916, 7.051e-6
0.920, 7.028e-6
0.924, 7.110e-6
0.928, 7.063e-6
0.932, 6.969e-6
0.936, 7.063e-6
0.940, 7.004e-6
0.944, 7.016e-6
0.948, 6.922e-6
0.952, 6.969e-6
0.956, 6.934e-6
0.960, 6.840e-6
0.964, 6.840e-6
0.968, 6.745e-6
0.972, 6.851e-6
0.976, 6.851e-6
0.980, 6.816e-6
0.984, 6.745e-6
0.988, 6.722e-6
0.992, 6.745e-6
0.996, 6.639e-6
1.000, 6.757e-6
