July 25, 2025   10:53:00
Differential Pulse Voltammetry
File: e:\Data Source:  Experiment
Instrument Model:  CHI620E
Header: 
Note: 

Init E (V) = 0
Final E (V) = 1
Incr E (V) = 0.004
Amplitude (V) = 0.05
Pulse Width (sec) = 0.05
Sample Width (sec) = 0.0167
Pulse Period (sec) = 0.5
Quiet Time (sec) = 2
Sensitivity (A/V) = 0.01

Results:

Channel 1:
Ep = 0.584V
ip = 1.130e-5A
Ap = 1.298e-6VA

Potential/V, Current/A

0.004, 6.969e-6
0.008, 6.757e-6
0.012, 6.698e-6
0.016, 6.710e-6
0.020, 6.533e-6
0.024, 6.416e-6
0.028, 6.439e-6
0.032, 6.322e-6
0.036, 6.145e-6
0.040, 5.980e-6
0.044, 6.063e-6
0.048, 5.862e-6
0.052, 5.886e-6
0.056, 5.698e-6
0.060, 5.910e-6
0.064, 5.792e-6
0.068, 5.674e-6
0.072, 5.603e-6
0.076, 5.792e-6
0.080, 5.509e-6
0.084, 5.427e-6
0.088, 5.262e-6
0.092, 5.356e-6
0.096, 5.674e-6
0.100, 5.180e-6
0.104, 5.309e-6
0.108, 5.286e-6
0.112, 5.156e-6
0.116, 5.038e-6
0.120, 4.827e-6
0.124, 4.803e-6
0.128, 4.732e-6
0.132, 4.709e-6
0.136, 4.662e-6
0.140, 4.615e-6
0.144, 4.509e-6
0.148, 4.462e-6
0.152, 4.650e-6
0.156, 4.297e-6
0.160, 4.356e-6
0.164, 4.167e-6
0.168, 4.226e-6
0.172, 4.297e-6
0.176, 4.061e-6
0.180, 4.226e-6
0.184, 3.861e-6
0.188, 4.038e-6
0.192, 4.014e-6
0.196, 3.284e-6
0.200, 3.708e-6
0.204, 3.897e-6
0.208, 3.555e-6
0.212, 3.543e-6
0.216, 3.167e-6
0.220, 3.473e-6
0.224, 3.567e-6
0.228, 3.308e-6
0.232, 3.167e-6
0.236, 3.037e-6
0.240, 3.331e-6
0.244, 3.096e-6
0.248, 3.167e-6
0.252, 3.072e-6
0.256, 3.025e-6
0.260, 3.214e-6
0.264, 3.072e-6
0.268, 3.237e-6
0.272, 3.025e-6
0.276, 3.084e-6
0.280, 3.108e-6
0.284, 3.049e-6
0.288, 2.978e-6
0.292, 3.037e-6
0.296, 2.943e-6
0.300, 2.943e-6
0.304, 2.849e-6
0.308, 2.766e-6
0.312, 2.814e-6
0.316, 2.872e-6
0.320, 2.931e-6
0.324, 2.743e-6
0.328, 2.660e-6
0.332, 2.625e-6
0.336, 2.743e-6
0.340, 2.696e-6
0.344, 2.590e-6
0.348, 2.660e-6
0.352, 2.719e-6
0.356, 2.719e-6
0.360, 2.543e-6
0.364, 2.660e-6
0.368, 2.637e-6
0.372, 2.755e-6
0.376, 2.613e-6
0.380, 2.602e-6
0.384, 2.543e-6
0.388, 2.566e-6
0.392, 2.637e-6
0.396, 2.566e-6
0.400, 2.555e-6
0.404, 2.672e-6
0.408, 2.460e-6
0.412, 2.472e-6
0.416, 2.413e-6
0.420, 2.437e-6
0.424, 2.366e-6
0.428, 2.625e-6
0.432, 2.519e-6
0.436, 2.531e-6
0.440, 2.354e-6
0.444, 2.519e-6
0.448, 2.613e-6
0.452, 2.413e-6
0.456, 2.637e-6
0.460, 2.590e-6
0.464, 2.731e-6
0.468, 2.719e-6
0.472, 2.696e-6
0.476, 2.884e-6
0.480, 3.096e-6
0.484, 3.061e-6
0.488, 3.355e-6
0.492, 3.296e-6
0.496, 3.320e-6
0.500, 3.567e-6
0.504, 3.885e-6
0.508, 4.120e-6
0.512, 4.638e-6
0.516, 4.791e-6
0.520, 5.392e-6
0.524, 5.768e-6
0.528, 6.380e-6
0.532, 6.828e-6
0.536, 7.840e-6
0.540, 8.464e-6
0.544, 9.571e-6
0.548, 1.068e-5
0.552, 1.164e-5
0.556, 1.250e-5
0.560, 1.355e-5
0.564, 1.492e-5
0.568, 1.552e-5
0.572, 1.643e-5
0.576, 1.687e-5
0.580, 1.719e-5
0.584, 1.735e-5
0.588, 1.726e-5
0.592, 1.716e-5
0.596, 1.705e-5
0.600, 1.667e-5
0.604, 1.627e-5
0.608, 1.586e-5
0.612, 1.542e-5
0.616, 1.534e-5
0.620, 1.504e-5
0.624, 1.492e-5
0.628, 1.481e-5
0.632, 1.447e-5
0.636, 1.428e-5
0.640, 1.391e-5
0.644, 1.389e-5
0.648, 1.353e-5
0.652, 1.346e-5
0.656, 1.326e-5
0.660, 1.287e-5
0.664, 1.293e-5
0.668, 1.281e-5
0.672, 1.249e-5
0.676, 1.248e-5
0.680, 1.231e-5
0.684, 1.208e-5
0.688, 1.196e-5
0.692, 1.189e-5
0.696, 1.152e-5
0.700, 1.171e-5
0.704, 1.141e-5
0.708, 1.140e-5
0.712, 1.147e-5
0.716, 1.129e-5
0.720, 1.121e-5
0.724, 1.114e-5
0.728, 1.123e-5
0.732, 1.109e-5
0.736, 1.098e-5
0.740, 1.096e-5
0.744, 1.085e-5
0.748, 1.097e-5
0.752, 1.085e-5
0.756, 1.077e-5
0.760, 1.055e-5
0.764, 1.067e-5
0.768, 1.071e-5
0.772, 1.038e-5
0.776, 1.050e-5
0.780, 1.051e-5
0.784, 1.045e-5
0.788, 1.045e-5
0.792, 1.021e-5
0.796, 1.022e-5
0.800, 1.023e-5
0.804, 9.983e-6
0.808, 1.001e-5
0.812, 9.983e-6
0.816, 9.747e-6
0.820, 9.888e-6
0.824, 9.512e-6
0.828, 9.641e-6
0.832, 9.382e-6
0.836, 9.359e-6
0.840, 9.359e-6
0.844, 9.335e-6
0.848, 9.217e-6
0.852, 9.006e-6
0.856, 8.994e-6
0.860, 9.041e-6
0.864, 9.006e-6
0.868, 8.853e-6
0.872, 8.805e-6
0.876, 8.770e-6
0.880, 8.546e-6
0.884, 8.605e-6
0.888, 8.452e-6
0.892, 8.476e-6
0.896, 8.488e-6
0.900, 8.287e-6
0.904, 8.405e-6
0.908, 8.299e-6
0.912, 8.111e-6
0.916, 8.123e-6
0.920, 8.287e-6
0.924, 8.323e-6
0.928, 8.099e-6
0.932, 7.899e-6
0.936, 7.993e-6
0.940, 7.664e-6
0.944, 7.970e-6
0.948, 8.276e-6
0.952, 7.840e-6
0.956, 7.923e-6
0.960, 7.923e-6
0.964, 8.146e-6
0.968, 8.017e-6
0.972, 8.017e-6
0.976, 8.087e-6
0.980, 8.028e-6
0.984, 8.170e-6
0.988, 8.170e-6
0.992, 8.182e-6
0.996, 8.182e-6
1.000, 8.476e-6
