July 25, 2025   10:57:20
Differential Pulse Voltammetry
File: e:\Data Source:  Experiment
Instrument Model:  CHI620E
Header: 
Note: 

Init E (V) = 0
Final E (V) = 1
Incr E (V) = 0.004
Amplitude (V) = 0.05
Pulse Width (sec) = 0.05
Sample Width (sec) = 0.0167
Pulse Period (sec) = 0.5
Quiet Time (sec) = 2
Sensitivity (A/V) = 0.01

Results:

Channel 1:
Ep = 0.588V
ip = 1.056e-5A
Ap = 1.258e-6VA

Potential/V, Current/A

0.004, 7.193e-6
0.008, 6.816e-6
0.012, 6.922e-6
0.016, 6.686e-6
0.020, 6.616e-6
0.024, 6.463e-6
0.028, 6.557e-6
0.032, 6.310e-6
0.036, 5.980e-6
0.040, 6.086e-6
0.044, 6.039e-6
0.048, 5.933e-6
0.052, 5.780e-6
0.056, 5.639e-6
0.060, 5.686e-6
0.064, 5.639e-6
0.068, 5.639e-6
0.072, 5.639e-6
0.076, 5.639e-6
0.080, 5.486e-6
0.084, 5.392e-6
0.088, 5.286e-6
0.092, 5.498e-6
0.096, 5.486e-6
0.100, 4.980e-6
0.104, 5.085e-6
0.108, 4.980e-6
0.112, 4.944e-6
0.116, 4.838e-6
0.120, 4.850e-6
0.124, 4.756e-6
0.128, 4.756e-6
0.132, 4.568e-6
0.136, 4.650e-6
0.140, 4.579e-6
0.144, 4.497e-6
0.148, 4.320e-6
0.152, 4.238e-6
0.156, 4.320e-6
0.160, 4.179e-6
0.164, 4.085e-6
0.168, 4.061e-6
0.172, 4.108e-6
0.176, 3.979e-6
0.180, 3.885e-6
0.184, 3.802e-6
0.188, 3.897e-6
0.192, 3.508e-6
0.196, 3.543e-6
0.200, 3.602e-6
0.204, 3.614e-6
0.208, 3.379e-6
0.212, 3.485e-6
0.216, 3.473e-6
0.220, 3.343e-6
0.224, 3.331e-6
0.228, 3.226e-6
0.232, 3.190e-6
0.236, 3.178e-6
0.240, 3.131e-6
0.244, 3.108e-6
0.248, 2.955e-6
0.252, 3.214e-6
0.256, 3.049e-6
0.260, 3.084e-6
0.264, 2.884e-6
0.268, 3.131e-6
0.272, 2.990e-6
0.276, 2.637e-6
0.280, 3.120e-6
0.284, 2.766e-6
0.288, 2.861e-6
0.292, 2.437e-6
0.296, 2.919e-6
0.300, 2.849e-6
0.304, 2.931e-6
0.308, 2.731e-6
0.312, 2.613e-6
0.316, 2.802e-6
0.320, 2.696e-6
0.324, 2.484e-6
0.328, 2.766e-6
0.332, 2.825e-6
0.336, 2.625e-6
0.340, 2.637e-6
0.344, 2.543e-6
0.348, 2.519e-6
0.352, 2.625e-6
0.356, 2.625e-6
0.360, 2.660e-6
0.364, 2.519e-6
0.368, 2.496e-6
0.372, 2.696e-6
0.376, 2.496e-6
0.380, 2.531e-6
0.384, 2.578e-6
0.388, 2.190e-6
0.392, 2.496e-6
0.396, 2.507e-6
0.400, 2.284e-6
0.404, 2.484e-6
0.408, 2.037e-6
0.412, 2.343e-6
0.416, 2.378e-6
0.420, 2.743e-6
0.424, 2.296e-6
0.428, 2.366e-6
0.432, 2.413e-6
0.436, 2.390e-6
0.440, 2.378e-6
0.444, 2.413e-6
0.448, 2.225e-6
0.452, 2.496e-6
0.456, 2.284e-6
0.460, 2.390e-6
0.464, 2.401e-6
0.468, 2.284e-6
0.472, 2.672e-6
0.476, 2.472e-6
0.480, 2.578e-6
0.484, 2.543e-6
0.488, 2.543e-6
0.492, 3.072e-6
0.496, 3.002e-6
0.500, 3.037e-6
0.504, 3.343e-6
0.508, 3.484e-6
0.512, 3.755e-6
0.516, 4.038e-6
0.520, 4.367e-6
0.524, 4.909e-6
0.528, 5.180e-6
0.532, 5.745e-6
0.536, 6.145e-6
0.540, 6.875e-6
0.544, 7.934e-6
0.548, 8.794e-6
0.552, 9.629e-6
0.556, 1.055e-5
0.560, 1.169e-5
0.564, 1.255e-5
0.568, 1.356e-5
0.572, 1.451e-5
0.576, 1.515e-5
0.580, 1.568e-5
0.584, 1.625e-5
0.588, 1.653e-5
0.592, 1.630e-5
0.596, 1.653e-5
0.600, 1.627e-5
0.604, 1.608e-5
0.608, 1.596e-5
0.612, 1.559e-5
0.616, 1.552e-5
0.620, 1.547e-5
0.624, 1.522e-5
0.628, 1.530e-5
0.632, 1.490e-5
0.636, 1.489e-5
0.640, 1.468e-5
0.644, 1.448e-5
0.648, 1.463e-5
0.652, 1.443e-5
0.656, 1.424e-5
0.660, 1.409e-5
0.664, 1.399e-5
0.668, 1.402e-5
0.672, 1.356e-5
0.676, 1.350e-5
0.680, 1.315e-5
0.684, 1.311e-5
0.688, 1.285e-5
0.692, 1.264e-5
0.696, 1.244e-5
0.700, 1.248e-5
0.704, 1.231e-5
0.708, 1.218e-5
0.712, 1.190e-5
0.716, 1.193e-5
0.720, 1.182e-5
0.724, 1.162e-5
0.728, 1.169e-5
0.732, 1.167e-5
0.736, 1.163e-5
0.740, 1.143e-5
0.744, 1.151e-5
0.748, 1.112e-5
0.752, 1.132e-5
0.756, 1.107e-5
0.760, 1.118e-5
0.764, 1.096e-5
0.768, 1.108e-5
0.772, 1.110e-5
0.776, 1.115e-5
0.780, 1.088e-5
0.784, 1.103e-5
0.788, 1.088e-5
0.792, 1.092e-5
0.796, 1.075e-5
0.800, 1.075e-5
0.804, 1.063e-5
0.808, 1.055e-5
0.812, 1.044e-5
0.816, 1.050e-5
0.820, 1.023e-5
0.824, 9.971e-6
0.828, 9.994e-6
0.832, 1.009e-5
0.836, 9.700e-6
0.840, 1.007e-5
0.844, 9.724e-6
0.848, 9.877e-6
0.852, 9.535e-6
0.856, 9.547e-6
0.860, 9.335e-6
0.864, 9.418e-6
0.868, 9.170e-6
0.872, 9.017e-6
0.876, 9.159e-6
0.880, 9.029e-6
0.884, 8.970e-6
0.888, 8.994e-6
0.892, 8.888e-6
0.896, 8.758e-6
0.900, 8.464e-6
0.904, 8.841e-6
0.908, 8.617e-6
0.912, 8.229e-6
0.916, 8.229e-6
0.920, 8.429e-6
0.924, 8.205e-6
0.928, 8.370e-6
0.932, 8.229e-6
0.936, 8.240e-6
0.940, 8.170e-6
0.944, 8.099e-6
0.948, 7.746e-6
0.952, 8.335e-6
0.956, 8.017e-6
0.960, 8.276e-6
0.964, 8.134e-6
0.968, 8.346e-6
0.972, 8.311e-6
0.976, 8.193e-6
0.980, 8.346e-6
0.984, 8.087e-6
0.988, 8.299e-6
0.992, 8.688e-6
0.996, 8.335e-6
1.000, 8.558e-6
