July 25, 2025   13:26:00
Differential Pulse Voltammetry
File: e:\Data Source:  Experiment
Instrument Model:  CHI620E
Header: 
Note: 

Init E (V) = 0
Final E (V) = 1
Incr E (V) = 0.004
Amplitude (V) = 0.05
Pulse Width (sec) = 0.05
Sample Width (sec) = 0.0167
Pulse Period (sec) = 0.5
Quiet Time (sec) = 2
Sensitivity (A/V) = 0.01

Results:

Channel 1:
Ep = 0.704V
ip = 2.153e-5A
Ap = 2.421e-6VA

Potential/V, Current/A

0.004, 9.335e-6
0.008, 8.605e-6
0.012, 8.064e-6
0.016, 7.511e-6
0.020, 7.181e-6
0.024, 6.969e-6
0.028, 6.816e-6
0.032, 6.616e-6
0.036, 6.616e-6
0.040, 6.404e-6
0.044, 6.475e-6
0.048, 6.416e-6
0.052, 6.510e-6
0.056, 6.121e-6
0.060, 6.286e-6
0.064, 6.110e-6
0.068, 6.027e-6
0.072, 5.839e-6
0.076, 5.957e-6
0.080, 5.898e-6
0.084, 5.910e-6
0.088, 5.698e-6
0.092, 5.674e-6
0.096, 5.427e-6
0.100, 5.615e-6
0.104, 5.580e-6
0.108, 5.368e-6
0.112, 5.356e-6
0.116, 5.450e-6
0.120, 5.297e-6
0.124, 5.368e-6
0.128, 5.215e-6
0.132, 5.203e-6
0.136, 5.250e-6
0.140, 5.133e-6
0.144, 5.133e-6
0.148, 5.038e-6
0.152, 5.074e-6
0.156, 5.191e-6
0.160, 5.085e-6
0.164, 4.968e-6
0.168, 4.956e-6
0.172, 4.932e-6
0.176, 4.956e-6
0.180, 4.956e-6
0.184, 4.756e-6
0.188, 4.897e-6
0.192, 4.638e-6
0.196, 4.779e-6
0.200, 4.685e-6
0.204, 4.768e-6
0.208, 4.615e-6
0.212, 4.520e-6
0.216, 4.532e-6
0.220, 4.603e-6
0.224, 4.438e-6
0.228, 4.332e-6
0.232, 4.344e-6
0.236, 4.191e-6
0.240, 4.203e-6
0.244, 4.050e-6
0.248, 4.097e-6
0.252, 4.026e-6
0.256, 3.955e-6
0.260, 3.826e-6
0.264, 3.861e-6
0.268, 3.814e-6
0.272, 3.802e-6
0.276, 3.685e-6
0.280, 3.602e-6
0.284, 3.779e-6
0.288, 3.602e-6
0.292, 3.626e-6
0.296, 3.602e-6
0.300, 3.567e-6
0.304, 3.543e-6
0.308, 3.449e-6
0.312, 3.343e-6
0.316, 3.367e-6
0.320, 3.237e-6
0.324, 3.237e-6
0.328, 3.296e-6
0.332, 3.273e-6
0.336, 3.155e-6
0.340, 3.167e-6
0.344, 2.955e-6
0.348, 3.155e-6
0.352, 3.167e-6
0.356, 3.049e-6
0.360, 2.896e-6
0.364, 3.155e-6
0.368, 3.096e-6
0.372, 2.837e-6
0.376, 3.014e-6
0.380, 3.037e-6
0.384, 3.049e-6
0.388, 2.908e-6
0.392, 2.743e-6
0.396, 2.849e-6
0.400, 2.955e-6
0.404, 2.955e-6
0.408, 2.931e-6
0.412, 2.990e-6
0.416, 2.861e-6
0.420, 2.743e-6
0.424, 2.908e-6
0.428, 2.790e-6
0.432, 2.743e-6
0.436, 2.872e-6
0.440, 2.766e-6
0.444, 2.849e-6
0.448, 2.660e-6
0.452, 2.613e-6
0.456, 2.602e-6
0.460, 2.743e-6
0.464, 2.731e-6
0.468, 2.696e-6
0.472, 2.731e-6
0.476, 2.790e-6
0.480, 2.637e-6
0.484, 2.660e-6
0.488, 2.790e-6
0.492, 2.649e-6
0.496, 2.578e-6
0.500, 2.590e-6
0.504, 2.613e-6
0.508, 2.484e-6
0.512, 2.719e-6
0.516, 2.590e-6
0.520, 2.696e-6
0.524, 2.590e-6
0.528, 2.708e-6
0.532, 2.696e-6
0.536, 2.672e-6
0.540, 2.766e-6
0.544, 2.696e-6
0.548, 2.755e-6
0.552, 2.849e-6
0.556, 2.849e-6
0.560, 2.802e-6
0.564, 2.696e-6
0.568, 2.967e-6
0.572, 2.943e-6
0.576, 3.214e-6
0.580, 3.167e-6
0.584, 3.284e-6
0.588, 3.520e-6
0.592, 3.626e-6
0.596, 3.614e-6
0.600, 3.979e-6
0.604, 4.167e-6
0.608, 4.509e-6
0.612, 4.897e-6
0.616, 5.321e-6
0.620, 5.874e-6
0.624, 6.581e-6
0.628, 7.440e-6
0.632, 8.229e-6
0.636, 9.359e-6
0.640, 1.088e-5
0.644, 1.247e-5
0.648, 1.444e-5
0.652, 1.665e-5
0.656, 1.921e-5
0.660, 2.167e-5
0.664, 2.424e-5
0.668, 2.684e-5
0.672, 2.914e-5
0.676, 3.090e-5
0.680, 3.242e-5
0.684, 3.383e-5
0.688, 3.466e-5
0.692, 3.517e-5
0.696, 3.560e-5
0.700, 3.580e-5
0.704, 3.594e-5
0.708, 3.576e-5
0.712, 3.559e-5
0.716, 3.514e-5
0.720, 3.469e-5
0.724, 3.414e-5
0.728, 3.353e-5
0.732, 3.296e-5
0.736, 3.234e-5
0.740, 3.170e-5
0.744, 3.123e-5
0.748, 3.085e-5
0.752, 3.031e-5
0.756, 2.991e-5
0.760, 2.964e-5
0.764, 2.945e-5
0.768, 2.905e-5
0.772, 2.870e-5
0.776, 2.866e-5
0.780, 2.832e-5
0.784, 2.810e-5
0.788, 2.791e-5
0.792, 2.770e-5
0.796, 2.742e-5
0.800, 2.709e-5
0.804, 2.678e-5
0.808, 2.668e-5
0.812, 2.628e-5
0.816, 2.607e-5
0.820, 2.583e-5
0.824, 2.550e-5
0.828, 2.529e-5
0.832, 2.500e-5
0.836, 2.485e-5
0.840, 2.472e-5
0.844, 2.452e-5
0.848, 2.450e-5
0.852, 2.430e-5
0.856, 2.421e-5
0.860, 2.425e-5
0.864, 2.414e-5
0.868, 2.404e-5
0.872, 2.420e-5
0.876, 2.423e-5
0.880, 2.424e-5
0.884, 2.433e-5
0.888, 2.430e-5
0.892, 2.449e-5
0.896, 2.432e-5
0.900, 2.445e-5
0.904, 2.454e-5
0.908, 2.460e-5
0.912, 2.467e-5
0.916, 2.457e-5
0.920, 2.454e-5
0.924, 2.459e-5
0.928, 2.449e-5
0.932, 2.449e-5
0.936, 2.426e-5
0.940, 2.421e-5
0.944, 2.407e-5
0.948, 2.381e-5
0.952, 2.339e-5
0.956, 2.312e-5
0.960, 2.279e-5
0.964, 2.232e-5
0.968, 2.204e-5
0.972, 2.160e-5
0.976, 2.099e-5
0.980, 2.049e-5
0.984, 1.997e-5
0.988, 1.942e-5
0.992, 1.896e-5
0.996, 1.826e-5
1.000, 1.766e-5
