July 15, 2025   10:31:39
Differential Pulse Voltammetry
File: e:\Data Source:  Experiment
Instrument Model:  CHI620E
Header: 
Note: 

Init E (V) = 0
Final E (V) = 1
Incr E (V) = 0.004
Amplitude (V) = 0.05
Pulse Width (sec) = 0.05
Sample Width (sec) = 0.0167
Pulse Period (sec) = 0.5
Quiet Time (sec) = 2
Sensitivity (A/V) = 0.01

Results:

Channel 1:
Ep = 0.832V
ip = 8.033e-5A
Ap = 1.448e-5VA

Potential/V, Current/A

0.004, 1.031e-5
0.008, 9.535e-6
0.012, 8.853e-6
0.016, 8.464e-6
0.020, 7.981e-6
0.024, 7.534e-6
0.028, 7.169e-6
0.032, 6.781e-6
0.036, 6.581e-6
0.040, 6.298e-6
0.044, 6.169e-6
0.048, 5.886e-6
0.052, 5.686e-6
0.056, 5.286e-6
0.060, 5.309e-6
0.064, 5.144e-6
0.068, 4.956e-6
0.072, 4.921e-6
0.076, 4.932e-6
0.080, 4.850e-6
0.084, 4.556e-6
0.088, 4.532e-6
0.092, 4.497e-6
0.096, 4.367e-6
0.100, 4.250e-6
0.104, 4.226e-6
0.108, 4.273e-6
0.112, 3.944e-6
0.116, 4.014e-6
0.120, 3.944e-6
0.124, 3.932e-6
0.128, 3.885e-6
0.132, 3.826e-6
0.136, 3.767e-6
0.140, 3.626e-6
0.144, 3.708e-6
0.148, 3.673e-6
0.152, 3.520e-6
0.156, 3.579e-6
0.160, 3.355e-6
0.164, 3.508e-6
0.168, 3.414e-6
0.172, 3.379e-6
0.176, 3.449e-6
0.180, 3.390e-6
0.184, 3.120e-6
0.188, 3.367e-6
0.192, 3.190e-6
0.196, 3.108e-6
0.200, 3.167e-6
0.204, 3.143e-6
0.208, 3.061e-6
0.212, 3.037e-6
0.216, 2.990e-6
0.220, 3.131e-6
0.224, 2.790e-6
0.228, 2.943e-6
0.232, 2.908e-6
0.236, 2.814e-6
0.240, 2.790e-6
0.244, 2.802e-6
0.248, 2.696e-6
0.252, 2.696e-6
0.256, 2.696e-6
0.260, 2.625e-6
0.264, 2.696e-6
0.268, 2.755e-6
0.272, 2.602e-6
0.276, 2.578e-6
0.280, 2.613e-6
0.284, 2.637e-6
0.288, 2.566e-6
0.292, 2.449e-6
0.296, 2.460e-6
0.300, 2.413e-6
0.304, 2.484e-6
0.308, 2.507e-6
0.312, 2.319e-6
0.316, 2.343e-6
0.320, 2.260e-6
0.324, 2.307e-6
0.328, 2.296e-6
0.332, 2.225e-6
0.336, 2.307e-6
0.340, 2.213e-6
0.344, 2.237e-6
0.348, 2.166e-6
0.352, 2.343e-6
0.356, 2.107e-6
0.360, 2.107e-6
0.364, 2.142e-6
0.368, 2.237e-6
0.372, 2.166e-6
0.376, 2.190e-6
0.380, 2.201e-6
0.384, 2.084e-6
0.388, 2.142e-6
0.392, 1.989e-6
0.396, 2.166e-6
0.400, 2.095e-6
0.404, 2.142e-6
0.408, 2.025e-6
0.412, 2.072e-6
0.416, 1.966e-6
0.420, 1.895e-6
0.424, 2.025e-6
0.428, 1.978e-6
0.432, 1.966e-6
0.436, 1.884e-6
0.440, 1.789e-6
0.444, 1.872e-6
0.448, 1.872e-6
0.452, 1.825e-6
0.456, 1.836e-6
0.460, 1.848e-6
0.464, 1.836e-6
0.468, 1.895e-6
0.472, 1.884e-6
0.476, 1.730e-6
0.480, 1.860e-6
0.484, 1.766e-6
0.488, 1.836e-6
0.492, 1.884e-6
0.496, 1.754e-6
0.500, 1.825e-6
0.504, 1.683e-6
0.508, 1.742e-6
0.512, 1.719e-6
0.516, 1.730e-6
0.520, 1.860e-6
0.524, 1.813e-6
0.528, 1.872e-6
0.532, 1.907e-6
0.536, 1.754e-6
0.540, 1.778e-6
0.544, 1.884e-6
0.548, 1.742e-6
0.552, 1.919e-6
0.556, 1.872e-6
0.560, 1.931e-6
0.564, 1.825e-6
0.568, 1.860e-6
0.572, 2.025e-6
0.576, 1.978e-6
0.580, 1.919e-6
0.584, 1.978e-6
0.588, 1.895e-6
0.592, 2.001e-6
0.596, 2.095e-6
0.600, 1.978e-6
0.604, 2.166e-6
0.608, 2.142e-6
0.612, 2.142e-6
0.616, 2.095e-6
0.620, 2.095e-6
0.624, 2.060e-6
0.628, 2.225e-6
0.632, 2.142e-6
0.636, 2.248e-6
0.640, 2.378e-6
0.644, 2.248e-6
0.648, 2.378e-6
0.652, 2.590e-6
0.656, 2.566e-6
0.660, 2.755e-6
0.664, 2.696e-6
0.668, 3.049e-6
0.672, 3.355e-6
0.676, 3.485e-6
0.680, 3.908e-6
0.684, 4.520e-6
0.688, 5.050e-6
0.692, 5.780e-6
0.696, 6.533e-6
0.700, 7.664e-6
0.704, 8.782e-6
0.708, 1.041e-5
0.712, 1.235e-5
0.716, 1.509e-5
0.720, 1.871e-5
0.724, 2.394e-5
0.728, 3.044e-5
0.732, 3.758e-5
0.736, 4.495e-5
0.740, 5.274e-5
0.744, 5.978e-5
0.748, 6.588e-5
0.752, 7.027e-5
0.756, 7.329e-5
0.760, 7.462e-5
0.764, 7.575e-5
0.768, 7.704e-5
0.772, 7.828e-5
0.776, 8.041e-5
0.780, 8.262e-5
0.784, 8.477e-5
0.788, 8.708e-5
0.792, 8.935e-5
0.796, 9.143e-5
0.800, 9.321e-5
0.804, 9.493e-5
0.808, 9.625e-5
0.812, 9.742e-5
0.816, 9.823e-5
0.820, 9.903e-5
0.824, 9.932e-5
0.828, 9.960e-5
0.832, 9.960e-5
0.836, 9.937e-5
0.840, 9.917e-5
0.844, 9.872e-5
0.848, 9.808e-5
0.852, 9.741e-5
0.856, 9.648e-5
0.860, 9.546e-5
0.864, 9.432e-5
0.868, 9.300e-5
0.872, 9.192e-5
0.876, 9.061e-5
0.880, 8.937e-5
0.884, 8.787e-5
0.888, 8.649e-5
0.892, 8.516e-5
0.896, 8.378e-5
0.900, 8.212e-5
0.904, 8.048e-5
0.908, 7.886e-5
0.912, 7.724e-5
0.916, 7.525e-5
0.920, 7.319e-5
0.924, 7.122e-5
0.928, 6.898e-5
0.932, 6.670e-5
0.936, 6.439e-5
0.940, 6.204e-5
0.944, 5.959e-5
0.948, 5.726e-5
0.952, 5.482e-5
0.956, 5.262e-5
0.960, 5.020e-5
0.964, 4.802e-5
0.968, 4.596e-5
0.972, 4.378e-5
0.976, 4.173e-5
0.980, 3.988e-5
0.984, 3.814e-5
0.988, 3.645e-5
0.992, 3.488e-5
0.996, 3.324e-5
1.000, 3.211e-5
