July 15, 2025   11:23:27
Differential Pulse Voltammetry
File: e:\Data Source:  Experiment
Instrument Model:  CHI620E
Header: 
Note: 

Init E (V) = 0
Final E (V) = 1
Incr E (V) = 0.004
Amplitude (V) = 0.05
Pulse Width (sec) = 0.05
Sample Width (sec) = 0.0167
Pulse Period (sec) = 0.5
Quiet Time (sec) = 2
Sensitivity (A/V) = 0.01

Results:

Channel 1:
Ep = 0.816V
ip = 8.927e-5A
Ap = 1.880e-5VA

Potential/V, Current/A

0.004, 1.388e-5
0.008, 1.322e-5
0.012, 1.280e-5
0.016, 1.230e-5
0.020, 1.141e-5
0.024, 1.058e-5
0.028, 1.015e-5
0.032, 9.547e-6
0.036, 9.241e-6
0.040, 8.935e-6
0.044, 8.676e-6
0.048, 8.664e-6
0.052, 8.523e-6
0.056, 8.205e-6
0.060, 8.311e-6
0.064, 8.299e-6
0.068, 8.299e-6
0.072, 8.382e-6
0.076, 8.276e-6
0.080, 8.299e-6
0.084, 8.382e-6
0.088, 8.335e-6
0.092, 8.229e-6
0.096, 8.134e-6
0.100, 8.087e-6
0.104, 8.323e-6
0.108, 8.134e-6
0.112, 8.017e-6
0.116, 8.028e-6
0.120, 7.981e-6
0.124, 7.981e-6
0.128, 7.817e-6
0.132, 7.793e-6
0.136, 7.605e-6
0.140, 7.558e-6
0.144, 7.628e-6
0.148, 7.511e-6
0.152, 7.369e-6
0.156, 7.275e-6
0.160, 7.275e-6
0.164, 6.922e-6
0.168, 7.087e-6
0.172, 6.922e-6
0.176, 6.722e-6
0.180, 6.828e-6
0.184, 6.569e-6
0.188, 6.463e-6
0.192, 6.463e-6
0.196, 6.145e-6
0.200, 6.192e-6
0.204, 6.004e-6
0.208, 6.027e-6
0.212, 5.756e-6
0.216, 5.721e-6
0.220, 5.651e-6
0.224, 5.462e-6
0.228, 5.415e-6
0.232, 5.297e-6
0.236, 5.297e-6
0.240, 5.038e-6
0.244, 5.085e-6
0.248, 4.885e-6
0.252, 4.744e-6
0.256, 4.779e-6
0.260, 4.603e-6
0.264, 4.473e-6
0.268, 4.414e-6
0.272, 4.367e-6
0.276, 4.156e-6
0.280, 4.179e-6
0.284, 4.144e-6
0.288, 4.014e-6
0.292, 3.967e-6
0.296, 3.838e-6
0.300, 3.838e-6
0.304, 3.861e-6
0.308, 3.732e-6
0.312, 3.567e-6
0.316, 3.532e-6
0.320, 3.496e-6
0.324, 3.320e-6
0.328, 3.331e-6
0.332, 3.308e-6
0.336, 3.437e-6
0.340, 3.214e-6
0.344, 3.143e-6
0.348, 3.190e-6
0.352, 3.167e-6
0.356, 3.061e-6
0.360, 3.072e-6
0.364, 3.178e-6
0.368, 3.249e-6
0.372, 3.002e-6
0.376, 3.049e-6
0.380, 3.049e-6
0.384, 2.978e-6
0.388, 2.967e-6
0.392, 2.931e-6
0.396, 2.931e-6
0.400, 2.884e-6
0.404, 2.837e-6
0.408, 2.908e-6
0.412, 2.861e-6
0.416, 2.849e-6
0.420, 2.519e-6
0.424, 2.672e-6
0.428, 2.649e-6
0.432, 2.637e-6
0.436, 2.731e-6
0.440, 2.649e-6
0.444, 2.743e-6
0.448, 2.613e-6
0.452, 2.602e-6
0.456, 2.496e-6
0.460, 2.590e-6
0.464, 2.555e-6
0.468, 2.602e-6
0.472, 2.519e-6
0.476, 2.507e-6
0.480, 2.519e-6
0.484, 2.660e-6
0.488, 2.507e-6
0.492, 2.590e-6
0.496, 2.449e-6
0.500, 2.637e-6
0.504, 2.625e-6
0.508, 2.625e-6
0.512, 2.602e-6
0.516, 2.460e-6
0.520, 2.649e-6
0.524, 2.543e-6
0.528, 2.649e-6
0.532, 2.543e-6
0.536, 2.555e-6
0.540, 2.649e-6
0.544, 2.602e-6
0.548, 2.602e-6
0.552, 2.566e-6
0.556, 2.602e-6
0.560, 2.731e-6
0.564, 2.755e-6
0.568, 2.649e-6
0.572, 2.908e-6
0.576, 2.731e-6
0.580, 2.743e-6
0.584, 2.872e-6
0.588, 3.108e-6
0.592, 3.237e-6
0.596, 3.120e-6
0.600, 3.273e-6
0.604, 3.320e-6
0.608, 3.532e-6
0.612, 3.661e-6
0.616, 3.708e-6
0.620, 4.050e-6
0.624, 4.120e-6
0.628, 4.709e-6
0.632, 4.850e-6
0.636, 5.533e-6
0.640, 6.145e-6
0.644, 7.016e-6
0.648, 8.182e-6
0.652, 9.582e-6
0.656, 1.135e-5
0.660, 1.370e-5
0.664, 1.646e-5
0.668, 1.991e-5
0.672, 2.399e-5
0.676, 2.882e-5
0.680, 3.480e-5
0.684, 4.138e-5
0.688, 4.784e-5
0.692, 5.387e-5
0.696, 5.954e-5
0.700, 6.480e-5
0.704, 6.940e-5
0.708, 7.299e-5
0.712, 7.528e-5
0.716, 7.635e-5
0.720, 7.632e-5
0.724, 7.589e-5
0.728, 7.569e-5
0.732, 7.576e-5
0.736, 7.647e-5
0.740, 7.718e-5
0.744, 7.852e-5
0.748, 8.019e-5
0.752, 8.183e-5
0.756, 8.382e-5
0.760, 8.591e-5
0.764, 8.804e-5
0.768, 9.021e-5
0.772, 9.225e-5
0.776, 9.434e-5
0.780, 9.627e-5
0.784, 9.801e-5
0.788, 9.957e-5
0.792, 1.010e-4
0.796, 1.024e-4
0.800, 1.033e-4
0.804, 1.041e-4
0.808, 1.045e-4
0.812, 1.049e-4
0.816, 1.052e-4
0.820, 1.050e-4
0.824, 1.045e-4
0.828, 1.042e-4
0.832, 1.036e-4
0.836, 1.028e-4
0.840, 1.021e-4
0.844, 1.011e-4
0.848, 9.996e-5
0.852, 9.873e-5
0.856, 9.738e-5
0.860, 9.586e-5
0.864, 9.422e-5
0.868, 9.276e-5
0.872, 9.121e-5
0.876, 8.967e-5
0.880, 8.801e-5
0.884, 8.639e-5
0.888, 8.449e-5
0.892, 8.271e-5
0.896, 8.070e-5
0.900, 7.858e-5
0.904, 7.622e-5
0.908, 7.389e-5
0.912, 7.137e-5
0.916, 6.877e-5
0.920, 6.604e-5
0.924, 6.331e-5
0.928, 6.077e-5
0.932, 5.805e-5
0.936, 5.543e-5
0.940, 5.291e-5
0.944, 5.033e-5
0.948, 4.784e-5
0.952, 4.546e-5
0.956, 4.332e-5
0.960, 4.099e-5
0.964, 3.912e-5
0.968, 3.728e-5
0.972, 3.542e-5
0.976, 3.377e-5
0.980, 3.222e-5
0.984, 3.061e-5
0.988, 2.928e-5
0.992, 2.816e-5
0.996, 2.696e-5
1.000, 2.583e-5
