July 15, 2025   10:44:39
Differential Pulse Voltammetry
File: e:\Data Source:  Experiment
Instrument Model:  CHI620E
Header: 
Note: 

Init E (V) = 0
Final E (V) = 1
Incr E (V) = 0.004
Amplitude (V) = 0.05
Pulse Width (sec) = 0.05
Sample Width (sec) = 0.0167
Pulse Period (sec) = 0.5
Quiet Time (sec) = 2
Sensitivity (A/V) = 0.01

Results:

Channel 1:
Ep = 0.820V
ip = 8.992e-5A
Ap = 1.806e-5VA

Potential/V, Current/A

0.004, 1.404e-5
0.008, 1.300e-5
0.012, 1.261e-5
0.016, 1.214e-5
0.020, 1.135e-5
0.024, 1.059e-5
0.028, 1.011e-5
0.032, 9.629e-6
0.036, 9.206e-6
0.040, 8.947e-6
0.044, 8.723e-6
0.048, 8.570e-6
0.052, 8.464e-6
0.056, 8.240e-6
0.060, 8.205e-6
0.064, 8.134e-6
0.068, 8.111e-6
0.072, 8.217e-6
0.076, 8.346e-6
0.080, 8.335e-6
0.084, 8.335e-6
0.088, 8.146e-6
0.092, 8.111e-6
0.096, 8.170e-6
0.100, 8.064e-6
0.104, 7.958e-6
0.108, 8.017e-6
0.112, 7.970e-6
0.116, 7.981e-6
0.120, 7.675e-6
0.124, 7.722e-6
0.128, 7.746e-6
0.132, 7.605e-6
0.136, 7.616e-6
0.140, 7.558e-6
0.144, 7.405e-6
0.148, 7.287e-6
0.152, 7.146e-6
0.156, 7.252e-6
0.160, 6.981e-6
0.164, 7.075e-6
0.168, 6.898e-6
0.172, 6.722e-6
0.176, 6.781e-6
0.180, 6.698e-6
0.184, 6.557e-6
0.188, 6.439e-6
0.192, 6.274e-6
0.196, 6.145e-6
0.200, 6.145e-6
0.204, 6.015e-6
0.208, 5.910e-6
0.212, 5.698e-6
0.216, 5.568e-6
0.220, 5.533e-6
0.224, 5.450e-6
0.228, 5.380e-6
0.232, 5.227e-6
0.236, 5.250e-6
0.240, 5.180e-6
0.244, 5.027e-6
0.248, 4.791e-6
0.252, 4.791e-6
0.256, 4.803e-6
0.260, 4.756e-6
0.264, 4.462e-6
0.268, 4.626e-6
0.272, 4.309e-6
0.276, 4.391e-6
0.280, 4.250e-6
0.284, 4.250e-6
0.288, 4.073e-6
0.292, 4.026e-6
0.296, 3.885e-6
0.300, 3.885e-6
0.304, 3.791e-6
0.308, 3.849e-6
0.312, 3.638e-6
0.316, 3.708e-6
0.320, 3.555e-6
0.324, 3.520e-6
0.328, 3.508e-6
0.332, 3.473e-6
0.336, 3.414e-6
0.340, 3.402e-6
0.344, 3.343e-6
0.348, 3.296e-6
0.352, 3.343e-6
0.356, 3.084e-6
0.360, 3.131e-6
0.364, 3.237e-6
0.368, 3.261e-6
0.372, 3.143e-6
0.376, 2.990e-6
0.380, 3.061e-6
0.384, 3.096e-6
0.388, 3.131e-6
0.392, 3.072e-6
0.396, 2.978e-6
0.400, 2.908e-6
0.404, 2.908e-6
0.408, 2.919e-6
0.412, 2.790e-6
0.416, 2.978e-6
0.420, 2.861e-6
0.424, 2.660e-6
0.428, 2.672e-6
0.432, 2.861e-6
0.436, 2.672e-6
0.440, 2.719e-6
0.444, 2.708e-6
0.448, 2.755e-6
0.452, 2.696e-6
0.456, 2.602e-6
0.460, 2.590e-6
0.464, 2.649e-6
0.468, 2.625e-6
0.472, 2.555e-6
0.476, 2.743e-6
0.480, 2.684e-6
0.484, 2.649e-6
0.488, 2.637e-6
0.492, 2.555e-6
0.496, 2.613e-6
0.500, 2.543e-6
0.504, 2.519e-6
0.508, 2.602e-6
0.512, 2.484e-6
0.516, 2.460e-6
0.520, 2.578e-6
0.524, 2.602e-6
0.528, 2.590e-6
0.532, 2.519e-6
0.536, 2.543e-6
0.540, 2.531e-6
0.544, 2.637e-6
0.548, 2.472e-6
0.552, 2.590e-6
0.556, 2.437e-6
0.560, 2.696e-6
0.564, 2.566e-6
0.568, 2.555e-6
0.572, 2.660e-6
0.576, 2.766e-6
0.580, 2.778e-6
0.584, 2.766e-6
0.588, 2.766e-6
0.592, 2.849e-6
0.596, 2.919e-6
0.600, 2.743e-6
0.604, 3.002e-6
0.608, 3.014e-6
0.612, 3.178e-6
0.616, 3.261e-6
0.620, 3.261e-6
0.624, 3.426e-6
0.628, 3.520e-6
0.632, 3.673e-6
0.636, 3.849e-6
0.640, 4.167e-6
0.644, 4.391e-6
0.648, 4.838e-6
0.652, 5.615e-6
0.656, 6.263e-6
0.660, 7.087e-6
0.664, 8.287e-6
0.668, 9.712e-6
0.672, 1.136e-5
0.676, 1.353e-5
0.680, 1.601e-5
0.684, 1.941e-5
0.688, 2.353e-5
0.692, 2.898e-5
0.696, 3.556e-5
0.700, 4.306e-5
0.704, 5.021e-5
0.708, 5.689e-5
0.712, 6.229e-5
0.716, 6.694e-5
0.720, 7.107e-5
0.724, 7.455e-5
0.728, 7.680e-5
0.732, 7.815e-5
0.736, 7.872e-5
0.740, 7.892e-5
0.744, 7.953e-5
0.748, 8.045e-5
0.752, 8.160e-5
0.756, 8.330e-5
0.760, 8.506e-5
0.764, 8.697e-5
0.768, 8.905e-5
0.772, 9.117e-5
0.776, 9.367e-5
0.780, 9.591e-5
0.784, 9.817e-5
0.788, 1.001e-4
0.792, 1.020e-4
0.796, 1.036e-4
0.800, 1.050e-4
0.804, 1.061e-4
0.808, 1.070e-4
0.812, 1.077e-4
0.816, 1.080e-4
0.820, 1.081e-4
0.824, 1.077e-4
0.828, 1.075e-4
0.832, 1.071e-4
0.836, 1.063e-4
0.840, 1.055e-4
0.844, 1.046e-4
0.848, 1.036e-4
0.852, 1.023e-4
0.856, 1.010e-4
0.860, 9.976e-5
0.864, 9.823e-5
0.868, 9.660e-5
0.872, 9.532e-5
0.876, 9.350e-5
0.880, 9.215e-5
0.884, 9.062e-5
0.888, 8.887e-5
0.892, 8.722e-5
0.896, 8.559e-5
0.900, 8.364e-5
0.904, 8.176e-5
0.908, 7.991e-5
0.912, 7.788e-5
0.916, 7.551e-5
0.920, 7.315e-5
0.924, 7.068e-5
0.928, 6.817e-5
0.932, 6.553e-5
0.936, 6.285e-5
0.940, 6.033e-5
0.944, 5.780e-5
0.948, 5.519e-5
0.952, 5.263e-5
0.956, 5.015e-5
0.960, 4.792e-5
0.964, 4.568e-5
0.968, 4.356e-5
0.972, 4.140e-5
0.976, 3.934e-5
0.980, 3.755e-5
0.984, 3.590e-5
0.988, 3.442e-5
0.992, 3.290e-5
0.996, 3.148e-5
1.000, 3.010e-5
