July 15, 2025   10:36:00
Differential Pulse Voltammetry
File: e:\Data Source:  Experiment
Instrument Model:  CHI620E
Header: 
Note: 

Init E (V) = 0
Final E (V) = 1
Incr E (V) = 0.004
Amplitude (V) = 0.05
Pulse Width (sec) = 0.05
Sample Width (sec) = 0.0167
Pulse Period (sec) = 0.5
Quiet Time (sec) = 2
Sensitivity (A/V) = 0.01

Results:

Channel 1:
Ep = 0.828V
ip = 8.464e-5A
Ap = 1.593e-5VA

Potential/V, Current/A

0.004, 1.388e-5
0.008, 1.285e-5
0.012, 1.250e-5
0.016, 1.188e-5
0.020, 1.114e-5
0.024, 1.029e-5
0.028, 9.971e-6
0.032, 9.524e-6
0.036, 9.041e-6
0.040, 8.664e-6
0.044, 8.546e-6
0.048, 8.299e-6
0.052, 8.405e-6
0.056, 8.087e-6
0.060, 8.217e-6
0.064, 8.076e-6
0.068, 7.993e-6
0.072, 7.958e-6
0.076, 8.099e-6
0.080, 7.923e-6
0.084, 7.875e-6
0.088, 7.875e-6
0.092, 7.781e-6
0.096, 7.805e-6
0.100, 7.699e-6
0.104, 7.652e-6
0.108, 7.699e-6
0.112, 7.534e-6
0.116, 7.546e-6
0.120, 7.263e-6
0.124, 7.240e-6
0.128, 7.169e-6
0.132, 7.063e-6
0.136, 6.863e-6
0.140, 6.863e-6
0.144, 6.592e-6
0.148, 6.557e-6
0.152, 6.416e-6
0.156, 6.345e-6
0.160, 6.286e-6
0.164, 6.157e-6
0.168, 5.980e-6
0.172, 5.945e-6
0.176, 5.733e-6
0.180, 5.545e-6
0.184, 5.380e-6
0.188, 5.462e-6
0.192, 5.262e-6
0.196, 5.215e-6
0.200, 5.015e-6
0.204, 4.874e-6
0.208, 4.756e-6
0.212, 4.603e-6
0.216, 4.414e-6
0.220, 4.462e-6
0.224, 4.179e-6
0.228, 4.238e-6
0.232, 3.897e-6
0.236, 3.955e-6
0.240, 3.873e-6
0.244, 3.802e-6
0.248, 3.685e-6
0.252, 3.661e-6
0.256, 3.590e-6
0.260, 3.320e-6
0.264, 3.343e-6
0.268, 3.367e-6
0.272, 3.214e-6
0.276, 3.155e-6
0.280, 3.143e-6
0.284, 3.214e-6
0.288, 3.049e-6
0.292, 2.908e-6
0.296, 2.990e-6
0.300, 3.014e-6
0.304, 2.908e-6
0.308, 2.872e-6
0.312, 2.802e-6
0.316, 2.872e-6
0.320, 2.790e-6
0.324, 2.590e-6
0.328, 2.578e-6
0.332, 2.660e-6
0.336, 2.566e-6
0.340, 2.590e-6
0.344, 2.519e-6
0.348, 2.555e-6
0.352, 2.519e-6
0.356, 2.543e-6
0.360, 2.543e-6
0.364, 2.519e-6
0.368, 2.437e-6
0.372, 2.390e-6
0.376, 2.460e-6
0.380, 2.460e-6
0.384, 2.343e-6
0.388, 2.331e-6
0.392, 2.390e-6
0.396, 2.425e-6
0.400, 2.307e-6
0.404, 2.190e-6
0.408, 2.248e-6
0.412, 2.343e-6
0.416, 2.390e-6
0.420, 2.260e-6
0.424, 2.142e-6
0.428, 2.343e-6
0.432, 2.131e-6
0.436, 2.201e-6
0.440, 2.154e-6
0.444, 2.072e-6
0.448, 2.296e-6
0.452, 2.154e-6
0.456, 2.142e-6
0.460, 2.190e-6
0.464, 2.095e-6
0.468, 2.119e-6
0.472, 2.025e-6
0.476, 2.060e-6
0.480, 1.978e-6
0.484, 1.954e-6
0.488, 2.072e-6
0.492, 2.190e-6
0.496, 2.060e-6
0.500, 2.142e-6
0.504, 1.872e-6
0.508, 2.013e-6
0.512, 2.084e-6
0.516, 1.825e-6
0.520, 2.142e-6
0.524, 1.989e-6
0.528, 2.154e-6
0.532, 2.001e-6
0.536, 2.037e-6
0.540, 2.001e-6
0.544, 1.966e-6
0.548, 1.942e-6
0.552, 2.107e-6
0.556, 2.072e-6
0.560, 2.060e-6
0.564, 2.072e-6
0.568, 1.884e-6
0.572, 2.154e-6
0.576, 2.072e-6
0.580, 2.025e-6
0.584, 2.095e-6
0.588, 2.178e-6
0.592, 2.178e-6
0.596, 2.178e-6
0.600, 2.213e-6
0.604, 2.319e-6
0.608, 2.272e-6
0.612, 2.213e-6
0.616, 2.284e-6
0.620, 2.331e-6
0.624, 2.472e-6
0.628, 2.413e-6
0.632, 2.472e-6
0.636, 2.731e-6
0.640, 2.637e-6
0.644, 2.813e-6
0.648, 2.896e-6
0.652, 3.190e-6
0.656, 3.402e-6
0.660, 3.661e-6
0.664, 4.167e-6
0.668, 4.579e-6
0.672, 5.368e-6
0.676, 6.039e-6
0.680, 7.228e-6
0.684, 8.558e-6
0.688, 9.830e-6
0.692, 1.141e-5
0.696, 1.334e-5
0.700, 1.577e-5
0.704, 1.861e-5
0.708, 2.258e-5
0.712, 2.772e-5
0.716, 3.369e-5
0.720, 4.044e-5
0.724, 4.701e-5
0.728, 5.372e-5
0.732, 6.000e-5
0.736, 6.566e-5
0.740, 7.017e-5
0.744, 7.337e-5
0.748, 7.535e-5
0.752, 7.635e-5
0.756, 7.714e-5
0.760, 7.805e-5
0.764, 7.965e-5
0.768, 8.147e-5
0.772, 8.348e-5
0.776, 8.578e-5
0.780, 8.789e-5
0.784, 9.013e-5
0.788, 9.228e-5
0.792, 9.442e-5
0.796, 9.615e-5
0.800, 9.773e-5
0.804, 9.927e-5
0.808, 1.003e-4
0.812, 1.013e-4
0.816, 1.021e-4
0.820, 1.023e-4
0.824, 1.024e-4
0.828, 1.025e-4
0.832, 1.024e-4
0.836, 1.020e-4
0.840, 1.014e-4
0.844, 1.006e-4
0.848, 9.970e-5
0.852, 9.892e-5
0.856, 9.767e-5
0.860, 9.645e-5
0.864, 9.518e-5
0.868, 9.382e-5
0.872, 9.237e-5
0.876, 9.082e-5
0.880, 8.950e-5
0.884, 8.812e-5
0.888, 8.645e-5
0.892, 8.496e-5
0.896, 8.331e-5
0.900, 8.156e-5
0.904, 7.977e-5
0.908, 7.788e-5
0.912, 7.583e-5
0.916, 7.361e-5
0.920, 7.131e-5
0.924, 6.885e-5
0.928, 6.659e-5
0.932, 6.405e-5
0.936, 6.172e-5
0.940, 5.925e-5
0.944, 5.666e-5
0.948, 5.421e-5
0.952, 5.164e-5
0.956, 4.942e-5
0.960, 4.706e-5
0.964, 4.495e-5
0.968, 4.270e-5
0.972, 4.078e-5
0.976, 3.892e-5
0.980, 3.716e-5
0.984, 3.545e-5
0.988, 3.394e-5
0.992, 3.257e-5
0.996, 3.125e-5
1.000, 2.977e-5
