July 15, 2025   12:02:08
Differential Pulse Voltammetry
File: e:\Data Source:  Experiment
Instrument Model:  CHI620E
Header: 
Note: 

Init E (V) = 0
Final E (V) = 1
Incr E (V) = 0.004
Amplitude (V) = 0.05
Pulse Width (sec) = 0.05
Sample Width (sec) = 0.0167
Pulse Period (sec) = 0.5
Quiet Time (sec) = 2
Sensitivity (A/V) = 0.01

Results:

Channel 1:
Ep = 0.584V
ip = 1.990e-5A
Ap = 6.282e-7VA

Potential/V, Current/A

0.004, 1.760e-5
0.008, 1.668e-5
0.012, 1.570e-5
0.016, 1.467e-5
0.020, 1.351e-5
0.024, 1.276e-5
0.028, 1.225e-5
0.032, 1.162e-5
0.036, 1.137e-5
0.040, 1.104e-5
0.044, 1.091e-5
0.048, 1.084e-5
0.052, 1.061e-5
0.056, 1.047e-5
0.060, 1.051e-5
0.064, 1.042e-5
0.068, 1.023e-5
0.072, 1.012e-5
0.076, 1.034e-5
0.080, 1.019e-5
0.084, 1.014e-5
0.088, 9.971e-6
0.092, 9.994e-6
0.096, 9.771e-6
0.100, 9.641e-6
0.104, 9.500e-6
0.108, 9.512e-6
0.112, 9.406e-6
0.116, 9.123e-6
0.120, 9.006e-6
0.124, 8.982e-6
0.128, 8.841e-6
0.132, 8.582e-6
0.136, 8.523e-6
0.140, 8.440e-6
0.144, 8.299e-6
0.148, 7.993e-6
0.152, 8.087e-6
0.156, 7.864e-6
0.160, 7.746e-6
0.164, 7.393e-6
0.168, 7.369e-6
0.172, 7.381e-6
0.176, 7.193e-6
0.180, 6.910e-6
0.184, 6.745e-6
0.188, 6.604e-6
0.192, 6.604e-6
0.196, 6.286e-6
0.200, 6.274e-6
0.204, 6.204e-6
0.208, 6.098e-6
0.212, 5.792e-6
0.216, 5.721e-6
0.220, 5.568e-6
0.224, 5.509e-6
0.228, 5.486e-6
0.232, 5.297e-6
0.236, 5.321e-6
0.240, 5.062e-6
0.244, 5.050e-6
0.248, 5.015e-6
0.252, 4.850e-6
0.256, 4.862e-6
0.260, 4.603e-6
0.264, 4.615e-6
0.268, 4.756e-6
0.272, 4.709e-6
0.276, 4.544e-6
0.280, 4.556e-6
0.284, 4.473e-6
0.288, 4.403e-6
0.292, 4.238e-6
0.296, 4.297e-6
0.300, 4.261e-6
0.304, 4.214e-6
0.308, 4.156e-6
0.312, 4.108e-6
0.316, 4.073e-6
0.320, 4.108e-6
0.324, 3.979e-6
0.328, 4.085e-6
0.332, 3.885e-6
0.336, 3.897e-6
0.340, 4.050e-6
0.344, 3.826e-6
0.348, 3.991e-6
0.352, 3.755e-6
0.356, 3.755e-6
0.360, 3.779e-6
0.364, 3.732e-6
0.368, 3.767e-6
0.372, 3.590e-6
0.376, 3.649e-6
0.380, 3.743e-6
0.384, 3.708e-6
0.388, 3.673e-6
0.392, 3.602e-6
0.396, 3.814e-6
0.400, 3.602e-6
0.404, 3.649e-6
0.408, 3.602e-6
0.412, 3.590e-6
0.416, 3.602e-6
0.420, 3.579e-6
0.424, 3.579e-6
0.428, 3.708e-6
0.432, 3.602e-6
0.436, 3.555e-6
0.440, 3.543e-6
0.444, 3.685e-6
0.448, 3.720e-6
0.452, 3.767e-6
0.456, 3.873e-6
0.460, 3.955e-6
0.464, 4.085e-6
0.468, 4.097e-6
0.472, 4.297e-6
0.476, 4.509e-6
0.480, 4.544e-6
0.484, 4.756e-6
0.488, 5.003e-6
0.492, 5.227e-6
0.496, 5.556e-6
0.500, 5.910e-6
0.504, 6.533e-6
0.508, 7.040e-6
0.512, 7.887e-6
0.516, 8.688e-6
0.520, 9.994e-6
0.524, 1.129e-5
0.528, 1.317e-5
0.532, 1.542e-5
0.536, 1.803e-5
0.540, 2.140e-5
0.544, 2.499e-5
0.548, 3.005e-5
0.552, 3.598e-5
0.556, 4.289e-5
0.560, 5.064e-5
0.564, 5.880e-5
0.568, 6.710e-5
0.572, 7.427e-5
0.576, 7.972e-5
0.580, 8.279e-5
0.584, 8.411e-5
0.588, 8.345e-5
0.592, 8.227e-5
0.596, 8.064e-5
0.600, 7.958e-5
0.604, 7.879e-5
0.608, 7.842e-5
0.612, 7.834e-5
0.616, 7.873e-5
0.620, 7.943e-5
0.624, 8.001e-5
0.628, 8.113e-5
0.632, 8.232e-5
0.636, 8.378e-5
0.640, 8.537e-5
0.644, 8.710e-5
0.648, 8.903e-5
0.652, 9.108e-5
0.656, 9.305e-5
0.660, 9.498e-5
0.664, 9.673e-5
0.668, 9.835e-5
0.672, 1.000e-4
0.676, 1.015e-4
0.680, 1.025e-4
0.684, 1.033e-4
0.688, 1.040e-4
0.692, 1.044e-4
0.696, 1.047e-4
0.700, 1.048e-4
0.704, 1.046e-4
0.708, 1.043e-4
0.712, 1.039e-4
0.716, 1.032e-4
0.720, 1.021e-4
0.724, 1.011e-4
0.728, 1.005e-4
0.732, 9.920e-5
0.736, 9.791e-5
0.740, 9.649e-5
0.744, 9.522e-5
0.748, 9.383e-5
0.752, 9.229e-5
0.756, 9.068e-5
0.760, 8.929e-5
0.764, 8.734e-5
0.768, 8.548e-5
0.772, 8.384e-5
0.776, 8.219e-5
0.780, 7.998e-5
0.784, 7.779e-5
0.788, 7.565e-5
0.792, 7.315e-5
0.796, 7.057e-5
0.800, 6.810e-5
0.804, 6.528e-5
0.808, 6.272e-5
0.812, 5.984e-5
0.816, 5.734e-5
0.820, 5.470e-5
0.824, 5.175e-5
0.828, 4.935e-5
0.832, 4.672e-5
0.836, 4.429e-5
0.840, 4.216e-5
0.844, 3.981e-5
0.848, 3.811e-5
0.852, 3.618e-5
0.856, 3.424e-5
0.860, 3.251e-5
0.864, 3.091e-5
0.868, 2.941e-5
0.872, 2.782e-5
0.876, 2.665e-5
0.880, 2.540e-5
0.884, 2.444e-5
0.888, 2.340e-5
0.892, 2.274e-5
0.896, 2.194e-5
0.900, 2.093e-5
0.904, 2.042e-5
0.908, 1.972e-5
0.912, 1.919e-5
0.916, 1.866e-5
0.920, 1.807e-5
0.924, 1.779e-5
0.928, 1.727e-5
0.932, 1.683e-5
0.936, 1.663e-5
0.940, 1.630e-5
0.944, 1.605e-5
0.948, 1.585e-5
0.952, 1.547e-5
0.956, 1.526e-5
0.960, 1.517e-5
0.964, 1.492e-5
0.968, 1.482e-5
0.972, 1.477e-5
0.976, 1.470e-5
0.980, 1.469e-5
0.984, 1.449e-5
0.988, 1.449e-5
0.992, 1.446e-5
0.996, 1.424e-5
1.000, 1.426e-5
