July 15, 2025   11:55:38
Differential Pulse Voltammetry
File: e:\Data Source:  Experiment
Instrument Model:  CHI620E
Header: 
Note: 

Init E (V) = 0
Final E (V) = 1
Incr E (V) = 0.004
Amplitude (V) = 0.05
Pulse Width (sec) = 0.05
Sample Width (sec) = 0.0167
Pulse Period (sec) = 0.5
Quiet Time (sec) = 2
Sensitivity (A/V) = 0.01

Results:

Channel 1:
Ep = 0.588V
ip = 2.500e-5A
Ap = 9.580e-7VA

Potential/V, Current/A

0.004, 1.726e-5
0.008, 1.648e-5
0.012, 1.561e-5
0.016, 1.449e-5
0.020, 1.331e-5
0.024, 1.253e-5
0.028, 1.194e-5
0.032, 1.151e-5
0.036, 1.122e-5
0.040, 1.092e-5
0.044, 1.088e-5
0.048, 1.059e-5
0.052, 1.049e-5
0.056, 1.035e-5
0.060, 1.019e-5
0.064, 1.044e-5
0.068, 1.038e-5
0.072, 1.011e-5
0.076, 1.034e-5
0.080, 1.023e-5
0.084, 1.024e-5
0.088, 1.014e-5
0.092, 1.008e-5
0.096, 1.002e-5
0.100, 9.912e-6
0.104, 9.947e-6
0.108, 9.888e-6
0.112, 9.830e-6
0.116, 9.888e-6
0.120, 9.724e-6
0.124, 9.571e-6
0.128, 9.571e-6
0.132, 9.359e-6
0.136, 9.335e-6
0.140, 9.347e-6
0.144, 9.159e-6
0.148, 9.170e-6
0.152, 8.935e-6
0.156, 8.970e-6
0.160, 8.888e-6
0.164, 8.711e-6
0.168, 8.664e-6
0.172, 8.476e-6
0.176, 8.523e-6
0.180, 8.252e-6
0.184, 7.970e-6
0.188, 7.993e-6
0.192, 7.793e-6
0.196, 7.711e-6
0.200, 7.722e-6
0.204, 7.452e-6
0.208, 7.463e-6
0.212, 7.275e-6
0.216, 7.063e-6
0.220, 6.969e-6
0.224, 6.804e-6
0.228, 6.639e-6
0.232, 6.569e-6
0.236, 6.522e-6
0.240, 6.369e-6
0.244, 6.427e-6
0.248, 6.192e-6
0.252, 6.086e-6
0.256, 5.862e-6
0.260, 5.698e-6
0.264, 5.792e-6
0.268, 5.756e-6
0.272, 5.533e-6
0.276, 5.686e-6
0.280, 5.427e-6
0.284, 5.486e-6
0.288, 5.297e-6
0.292, 5.380e-6
0.296, 5.250e-6
0.300, 5.156e-6
0.304, 5.109e-6
0.308, 5.050e-6
0.312, 4.980e-6
0.316, 4.921e-6
0.320, 4.874e-6
0.324, 4.662e-6
0.328, 4.709e-6
0.332, 4.697e-6
0.336, 4.685e-6
0.340, 4.450e-6
0.344, 4.520e-6
0.348, 4.568e-6
0.352, 4.497e-6
0.356, 4.485e-6
0.360, 4.473e-6
0.364, 4.520e-6
0.368, 4.356e-6
0.372, 4.414e-6
0.376, 4.297e-6
0.380, 4.179e-6
0.384, 4.367e-6
0.388, 4.191e-6
0.392, 4.273e-6
0.396, 4.179e-6
0.400, 4.226e-6
0.404, 4.238e-6
0.408, 4.002e-6
0.412, 4.073e-6
0.416, 4.144e-6
0.420, 4.120e-6
0.424, 3.944e-6
0.428, 4.038e-6
0.432, 4.167e-6
0.436, 3.991e-6
0.440, 4.061e-6
0.444, 4.132e-6
0.448, 4.214e-6
0.452, 4.061e-6
0.456, 4.238e-6
0.460, 4.238e-6
0.464, 4.285e-6
0.468, 4.332e-6
0.472, 4.509e-6
0.476, 4.532e-6
0.480, 4.815e-6
0.484, 4.956e-6
0.488, 5.203e-6
0.492, 5.380e-6
0.496, 5.733e-6
0.500, 6.063e-6
0.504, 6.416e-6
0.508, 6.993e-6
0.512, 7.628e-6
0.516, 8.158e-6
0.520, 9.265e-6
0.524, 1.036e-5
0.528, 1.180e-5
0.532, 1.328e-5
0.536, 1.541e-5
0.540, 1.801e-5
0.544, 2.146e-5
0.548, 2.539e-5
0.552, 3.034e-5
0.556, 3.665e-5
0.560, 4.379e-5
0.564, 5.196e-5
0.568, 6.067e-5
0.572, 7.009e-5
0.576, 7.827e-5
0.580, 8.458e-5
0.584, 8.800e-5
0.588, 8.966e-5
0.592, 8.961e-5
0.596, 8.884e-5
0.600, 8.758e-5
0.604, 8.669e-5
0.608, 8.558e-5
0.612, 8.475e-5
0.616, 8.399e-5
0.620, 8.376e-5
0.624, 8.384e-5
0.628, 8.384e-5
0.632, 8.442e-5
0.636, 8.495e-5
0.640, 8.571e-5
0.644, 8.690e-5
0.648, 8.831e-5
0.652, 8.947e-5
0.656, 9.156e-5
0.660, 9.330e-5
0.664, 9.489e-5
0.668, 9.725e-5
0.672, 9.933e-5
0.676, 1.019e-4
0.680, 1.031e-4
0.684, 1.047e-4
0.688, 1.061e-4
0.692, 1.071e-4
0.696, 1.083e-4
0.700, 1.088e-4
0.704, 1.098e-4
0.708, 1.093e-4
0.712, 1.097e-4
0.716, 1.095e-4
0.720, 1.093e-4
0.724, 1.087e-4
0.728, 1.081e-4
0.732, 1.073e-4
0.736, 1.065e-4
0.740, 1.054e-4
0.744, 1.043e-4
0.748, 1.032e-4
0.752, 1.020e-4
0.756, 1.007e-4
0.760, 9.931e-5
0.764, 9.731e-5
0.768, 9.599e-5
0.772, 9.426e-5
0.776, 9.257e-5
0.780, 9.074e-5
0.784, 8.943e-5
0.788, 8.783e-5
0.792, 8.586e-5
0.796, 8.386e-5
0.800, 8.151e-5
0.804, 7.927e-5
0.808, 7.675e-5
0.812, 7.419e-5
0.816, 7.189e-5
0.820, 6.936e-5
0.824, 6.635e-5
0.828, 6.376e-5
0.832, 6.076e-5
0.836, 5.794e-5
0.840, 5.528e-5
0.844, 5.274e-5
0.848, 5.000e-5
0.852, 4.751e-5
0.856, 4.499e-5
0.860, 4.226e-5
0.864, 4.012e-5
0.868, 3.782e-5
0.872, 3.608e-5
0.876, 3.408e-5
0.880, 3.198e-5
0.884, 3.015e-5
0.888, 2.901e-5
0.892, 2.771e-5
0.896, 2.606e-5
0.900, 2.512e-5
0.904, 2.405e-5
0.908, 2.337e-5
0.912, 2.267e-5
0.916, 2.178e-5
0.920, 2.111e-5
0.924, 2.038e-5
0.928, 1.973e-5
0.932, 1.904e-5
0.936, 1.852e-5
0.940, 1.822e-5
0.944, 1.766e-5
0.948, 1.726e-5
0.952, 1.690e-5
0.956, 1.662e-5
0.960, 1.635e-5
0.964, 1.596e-5
0.968, 1.581e-5
0.972, 1.544e-5
0.976, 1.533e-5
0.980, 1.517e-5
0.984, 1.520e-5
0.988, 1.501e-5
0.992, 1.490e-5
0.996, 1.492e-5
1.000, 1.466e-5
