July 15, 2025   11:57:48
Differential Pulse Voltammetry
File: e:\Data Source:  Experiment
Instrument Model:  CHI620E
Header: 
Note: 

Init E (V) = 0
Final E (V) = 1
Incr E (V) = 0.004
Amplitude (V) = 0.05
Pulse Width (sec) = 0.05
Sample Width (sec) = 0.0167
Pulse Period (sec) = 0.5
Quiet Time (sec) = 2
Sensitivity (A/V) = 0.01

Results:

Channel 1:
Ep = 0.584V
ip = 2.289e-5A
Ap = 8.806e-7VA

Potential/V, Current/A

0.004, 1.730e-5
0.008, 1.647e-5
0.012, 1.566e-5
0.016, 1.459e-5
0.020, 1.353e-5
0.024, 1.277e-5
0.028, 1.218e-5
0.032, 1.169e-5
0.036, 1.134e-5
0.040, 1.102e-5
0.044, 1.088e-5
0.048, 1.065e-5
0.052, 1.065e-5
0.056, 1.045e-5
0.060, 1.032e-5
0.064, 1.032e-5
0.068, 1.018e-5
0.072, 1.019e-5
0.076, 1.010e-5
0.080, 1.004e-5
0.084, 1.001e-5
0.088, 9.782e-6
0.092, 9.806e-6
0.096, 9.735e-6
0.100, 9.594e-6
0.104, 9.641e-6
0.108, 9.629e-6
0.112, 9.418e-6
0.116, 9.265e-6
0.120, 9.323e-6
0.124, 9.276e-6
0.128, 9.170e-6
0.132, 8.970e-6
0.136, 8.958e-6
0.140, 8.829e-6
0.144, 8.829e-6
0.148, 8.676e-6
0.152, 8.464e-6
0.156, 8.393e-6
0.160, 8.441e-6
0.164, 8.276e-6
0.168, 8.182e-6
0.172, 8.123e-6
0.176, 7.923e-6
0.180, 7.781e-6
0.184, 7.652e-6
0.188, 7.605e-6
0.192, 7.534e-6
0.196, 7.405e-6
0.200, 7.322e-6
0.204, 7.322e-6
0.208, 7.181e-6
0.212, 7.063e-6
0.216, 6.934e-6
0.220, 7.016e-6
0.224, 6.875e-6
0.228, 6.781e-6
0.232, 6.651e-6
0.236, 6.604e-6
0.240, 6.463e-6
0.244, 6.392e-6
0.248, 6.357e-6
0.252, 6.380e-6
0.256, 6.098e-6
0.260, 6.027e-6
0.264, 6.027e-6
0.268, 6.004e-6
0.272, 5.921e-6
0.276, 5.933e-6
0.280, 5.827e-6
0.284, 5.568e-6
0.288, 5.533e-6
0.292, 5.321e-6
0.296, 5.415e-6
0.300, 5.403e-6
0.304, 5.415e-6
0.308, 5.239e-6
0.312, 5.203e-6
0.316, 5.239e-6
0.320, 5.097e-6
0.324, 4.956e-6
0.328, 5.121e-6
0.332, 4.980e-6
0.336, 4.932e-6
0.340, 4.921e-6
0.344, 4.732e-6
0.348, 4.779e-6
0.352, 4.615e-6
0.356, 4.626e-6
0.360, 4.638e-6
0.364, 4.685e-6
0.368, 4.615e-6
0.372, 4.473e-6
0.376, 4.509e-6
0.380, 4.473e-6
0.384, 4.497e-6
0.388, 4.297e-6
0.392, 4.320e-6
0.396, 4.414e-6
0.400, 4.438e-6
0.404, 4.356e-6
0.408, 4.367e-6
0.412, 4.426e-6
0.416, 4.250e-6
0.420, 4.214e-6
0.424, 4.285e-6
0.428, 4.167e-6
0.432, 4.332e-6
0.436, 4.297e-6
0.440, 4.144e-6
0.444, 4.226e-6
0.448, 4.438e-6
0.452, 4.332e-6
0.456, 4.414e-6
0.460, 4.603e-6
0.464, 4.497e-6
0.468, 4.673e-6
0.472, 4.791e-6
0.476, 4.921e-6
0.480, 5.180e-6
0.484, 5.486e-6
0.488, 5.627e-6
0.492, 6.027e-6
0.496, 6.475e-6
0.500, 6.910e-6
0.504, 7.581e-6
0.508, 8.217e-6
0.512, 9.123e-6
0.516, 1.008e-5
0.520, 1.149e-5
0.524, 1.302e-5
0.528, 1.501e-5
0.532, 1.741e-5
0.536, 2.033e-5
0.540, 2.411e-5
0.544, 2.875e-5
0.548, 3.429e-5
0.552, 4.094e-5
0.556, 4.850e-5
0.560, 5.656e-5
0.564, 6.513e-5
0.568, 7.333e-5
0.572, 7.971e-5
0.576, 8.420e-5
0.580, 8.664e-5
0.584, 8.737e-5
0.588, 8.722e-5
0.592, 8.663e-5
0.596, 8.533e-5
0.600, 8.415e-5
0.604, 8.298e-5
0.608, 8.220e-5
0.612, 8.150e-5
0.616, 8.154e-5
0.620, 8.186e-5
0.624, 8.231e-5
0.628, 8.304e-5
0.632, 8.377e-5
0.636, 8.511e-5
0.640, 8.654e-5
0.644, 8.796e-5
0.648, 8.981e-5
0.652, 9.181e-5
0.656, 9.379e-5
0.660, 9.571e-5
0.664, 9.781e-5
0.668, 9.963e-5
0.672, 1.012e-4
0.676, 1.027e-4
0.680, 1.042e-4
0.684, 1.053e-4
0.688, 1.063e-4
0.692, 1.069e-4
0.696, 1.073e-4
0.700, 1.075e-4
0.704, 1.073e-4
0.708, 1.070e-4
0.712, 1.069e-4
0.716, 1.062e-4
0.720, 1.052e-4
0.724, 1.044e-4
0.728, 1.035e-4
0.732, 1.025e-4
0.736, 1.014e-4
0.740, 1.000e-4
0.744, 9.864e-5
0.748, 9.727e-5
0.752, 9.567e-5
0.756, 9.408e-5
0.760, 9.229e-5
0.764, 9.068e-5
0.768, 8.905e-5
0.772, 8.709e-5
0.776, 8.579e-5
0.780, 8.353e-5
0.784, 8.154e-5
0.788, 7.926e-5
0.792, 7.701e-5
0.796, 7.458e-5
0.800, 7.220e-5
0.804, 6.925e-5
0.808, 6.670e-5
0.812, 6.359e-5
0.816, 6.063e-5
0.820, 5.774e-5
0.824, 5.482e-5
0.828, 5.216e-5
0.832, 4.931e-5
0.836, 4.685e-5
0.840, 4.411e-5
0.844, 4.185e-5
0.848, 3.991e-5
0.852, 3.760e-5
0.856, 3.545e-5
0.860, 3.368e-5
0.864, 3.204e-5
0.868, 3.025e-5
0.872, 2.881e-5
0.876, 2.757e-5
0.880, 2.626e-5
0.884, 2.490e-5
0.888, 2.387e-5
0.892, 2.314e-5
0.896, 2.225e-5
0.900, 2.144e-5
0.904, 2.071e-5
0.908, 2.024e-5
0.912, 1.954e-5
0.916, 1.893e-5
0.920, 1.836e-5
0.924, 1.807e-5
0.928, 1.742e-5
0.932, 1.695e-5
0.936, 1.680e-5
0.940, 1.646e-5
0.944, 1.610e-5
0.948, 1.592e-5
0.952, 1.554e-5
0.956, 1.541e-5
0.960, 1.513e-5
0.964, 1.503e-5
0.968, 1.486e-5
0.972, 1.492e-5
0.976, 1.476e-5
0.980, 1.469e-5
0.984, 1.446e-5
0.988, 1.455e-5
0.992, 1.448e-5
0.996, 1.440e-5
1.000, 1.433e-5
