July 15, 2025   10:08:56
Differential Pulse Voltammetry
File: e:\Data Source:  Experiment
Instrument Model:  CHI620E
Header: 
Note: 

Init E (V) = 0
Final E (V) = 1
Incr E (V) = 0.004
Amplitude (V) = 0.05
Pulse Width (sec) = 0.05
Sample Width (sec) = 0.0167
Pulse Period (sec) = 0.5
Quiet Time (sec) = 2
Sensitivity (A/V) = 0.01

Results:

Channel 1:
Ep = 0.832V
ip = 3.318e-5A
Ap = 2.923e-6VA

Potential/V, Current/A

0.004, 6.557e-6
0.008, 6.110e-6
0.012, 5.839e-6
0.016, 5.568e-6
0.020, 5.274e-6
0.024, 5.191e-6
0.028, 4.862e-6
0.032, 4.615e-6
0.036, 4.579e-6
0.040, 4.309e-6
0.044, 4.156e-6
0.048, 4.038e-6
0.052, 3.944e-6
0.056, 3.779e-6
0.060, 3.720e-6
0.064, 3.708e-6
0.068, 3.567e-6
0.072, 3.567e-6
0.076, 3.367e-6
0.080, 3.449e-6
0.084, 3.202e-6
0.088, 3.273e-6
0.092, 3.202e-6
0.096, 3.072e-6
0.100, 3.120e-6
0.104, 3.014e-6
0.108, 2.837e-6
0.112, 2.908e-6
0.116, 2.731e-6
0.120, 2.613e-6
0.124, 2.837e-6
0.128, 2.507e-6
0.132, 2.578e-6
0.136, 2.590e-6
0.140, 2.602e-6
0.144, 2.531e-6
0.148, 2.625e-6
0.152, 2.331e-6
0.156, 2.472e-6
0.160, 2.590e-6
0.164, 2.437e-6
0.168, 2.449e-6
0.172, 2.378e-6
0.176, 2.437e-6
0.180, 2.343e-6
0.184, 2.296e-6
0.188, 2.366e-6
0.192, 2.272e-6
0.196, 2.248e-6
0.200, 2.437e-6
0.204, 2.484e-6
0.208, 2.319e-6
0.212, 2.378e-6
0.216, 2.272e-6
0.220, 2.437e-6
0.224, 2.354e-6
0.228, 2.272e-6
0.232, 2.201e-6
0.236, 2.131e-6
0.240, 2.225e-6
0.244, 2.166e-6
0.248, 2.154e-6
0.252, 2.319e-6
0.256, 2.390e-6
0.260, 2.413e-6
0.264, 2.272e-6
0.268, 2.602e-6
0.272, 2.119e-6
0.276, 1.836e-6
0.280, 1.907e-6
0.284, 1.872e-6
0.288, 1.566e-6
0.292, 1.884e-6
0.296, 1.848e-6
0.300, 1.707e-6
0.304, 7.416e-7
0.308, 2.555e-6
0.312, 4.002e-7
0.316, 1.213e-6
0.320, 1.672e-6
0.324, 1.860e-6
0.328, 1.778e-6
0.332, 2.142e-6
0.336, 1.825e-6
0.340, 1.872e-6
0.344, 1.836e-6
0.348, 1.625e-6
0.352, 1.778e-6
0.356, 1.860e-6
0.360, 1.801e-6
0.364, 1.860e-6
0.368, 1.884e-6
0.372, 1.978e-6
0.376, 1.895e-6
0.380, 1.813e-6
0.384, 1.813e-6
0.388, 1.789e-6
0.392, 1.872e-6
0.396, 1.742e-6
0.400, 1.942e-6
0.404, 1.778e-6
0.408, 1.672e-6
0.412, 1.766e-6
0.416, 1.766e-6
0.420, 1.566e-6
0.424, 1.601e-6
0.428, 1.801e-6
0.432, 1.542e-6
0.436, 1.507e-6
0.440, 1.519e-6
0.444, 1.601e-6
0.448, 1.495e-6
0.452, 1.389e-6
0.456, 1.460e-6
0.460, 1.460e-6
0.464, 1.601e-6
0.468, 1.448e-6
0.472, 1.401e-6
0.476, 1.554e-6
0.480, 1.625e-6
0.484, 1.495e-6
0.488, 1.401e-6
0.492, 1.471e-6
0.496, 1.448e-6
0.500, 1.354e-6
0.504, 1.366e-6
0.508, 1.342e-6
0.512, 1.236e-6
0.516, 1.295e-6
0.520, 1.271e-6
0.524, 1.201e-6
0.528, 1.283e-6
0.532, 1.260e-6
0.536, 1.307e-6
0.540, 1.424e-6
0.544, 1.342e-6
0.548, 1.201e-6
0.552, 1.118e-6
0.556, 1.330e-6
0.560, 1.295e-6
0.564, 1.213e-6
0.568, 1.130e-6
0.572, 1.401e-6
0.576, 1.177e-6
0.580, 1.248e-6
0.584, 1.318e-6
0.588, 1.165e-6
0.592, 1.236e-6
0.596, 1.236e-6
0.600, 1.177e-6
0.604, 1.248e-6
0.608, 1.283e-6
0.612, 1.177e-6
0.616, 1.165e-6
0.620, 1.342e-6
0.624, 1.354e-6
0.628, 1.260e-6
0.632, 1.201e-6
0.636, 1.483e-6
0.640, 1.377e-6
0.644, 1.307e-6
0.648, 1.389e-6
0.652, 1.318e-6
0.656, 1.424e-6
0.660, 1.471e-6
0.664, 1.366e-6
0.668, 1.542e-6
0.672, 1.648e-6
0.676, 1.825e-6
0.680, 1.978e-6
0.684, 2.154e-6
0.688, 2.425e-6
0.692, 2.625e-6
0.696, 2.696e-6
0.700, 2.908e-6
0.704, 3.214e-6
0.708, 3.379e-6
0.712, 3.791e-6
0.716, 4.132e-6
0.720, 4.297e-6
0.724, 5.062e-6
0.728, 5.651e-6
0.732, 6.639e-6
0.736, 7.817e-6
0.740, 9.265e-6
0.744, 1.141e-5
0.748, 1.446e-5
0.752, 1.842e-5
0.756, 2.440e-5
0.760, 3.189e-5
0.764, 3.995e-5
0.768, 4.942e-5
0.772, 5.834e-5
0.776, 6.669e-5
0.780, 7.281e-5
0.784, 7.642e-5
0.788, 7.898e-5
0.792, 8.132e-5
0.796, 8.396e-5
0.800, 8.649e-5
0.804, 8.915e-5
0.808, 9.155e-5
0.812, 9.352e-5
0.816, 9.532e-5
0.820, 9.677e-5
0.824, 9.761e-5
0.828, 9.825e-5
0.832, 9.871e-5
0.836, 9.865e-5
0.840, 9.866e-5
0.844, 9.800e-5
0.848, 9.742e-5
0.852, 9.677e-5
0.856, 9.576e-5
0.860, 9.474e-5
0.864, 9.358e-5
0.868, 9.255e-5
0.872, 9.137e-5
0.876, 8.986e-5
0.880, 8.870e-5
0.884, 8.734e-5
0.888, 8.602e-5
0.892, 8.479e-5
0.896, 8.357e-5
0.900, 8.206e-5
0.904, 8.079e-5
0.908, 7.952e-5
0.912, 7.800e-5
0.916, 7.635e-5
0.920, 7.473e-5
0.924, 7.302e-5
0.928, 7.121e-5
0.932, 6.928e-5
0.936, 6.736e-5
0.940, 6.525e-5
0.944, 6.332e-5
0.948, 6.125e-5
0.952, 5.904e-5
0.956, 5.678e-5
0.960, 5.472e-5
0.964, 5.256e-5
0.968, 5.043e-5
0.972, 4.858e-5
0.976, 4.653e-5
0.980, 4.472e-5
0.984, 4.265e-5
0.988, 4.077e-5
0.992, 3.918e-5
0.996, 3.760e-5
1.000, 3.621e-5
