July 22, 2025   20:37:40
Differential Pulse Voltammetry
File: e:\Data Source:  Experiment
Instrument Model:  CHI620E
Header: 
Note: 

Init E (V) = 0
Final E (V) = 1
Incr E (V) = 0.004
Amplitude (V) = 0.05
Pulse Width (sec) = 0.05
Sample Width (sec) = 0.0167
Pulse Period (sec) = 0.5
Quiet Time (sec) = 2
Sensitivity (A/V) = 0.01

Results:

Channel 1:
Ep = 0.700V
ip = 8.346e-6A
Ap = 9.029e-7VA

Potential/V, Current/A

0.004, 4.579e-6
0.008, 4.203e-6
0.012, 3.920e-6
0.016, 3.696e-6
0.020, 3.520e-6
0.024, 3.273e-6
0.028, 3.261e-6
0.032, 3.120e-6
0.036, 3.049e-6
0.040, 2.849e-6
0.044, 2.778e-6
0.048, 2.672e-6
0.052, 2.696e-6
0.056, 2.449e-6
0.060, 2.613e-6
0.064, 2.555e-6
0.068, 2.496e-6
0.072, 2.660e-6
0.076, 2.437e-6
0.080, 2.366e-6
0.084, 2.378e-6
0.088, 2.425e-6
0.092, 2.484e-6
0.096, 2.366e-6
0.100, 2.237e-6
0.104, 2.296e-6
0.108, 2.284e-6
0.112, 2.366e-6
0.116, 2.225e-6
0.120, 2.260e-6
0.124, 2.390e-6
0.128, 2.048e-6
0.132, 2.142e-6
0.136, 2.107e-6
0.140, 2.237e-6
0.144, 2.131e-6
0.148, 2.131e-6
0.152, 2.048e-6
0.156, 2.048e-6
0.160, 2.107e-6
0.164, 1.848e-6
0.168, 2.025e-6
0.172, 1.954e-6
0.176, 2.025e-6
0.180, 1.942e-6
0.184, 1.860e-6
0.188, 1.884e-6
0.192, 1.907e-6
0.196, 1.695e-6
0.200, 1.825e-6
0.204, 1.825e-6
0.208, 1.872e-6
0.212, 1.813e-6
0.216, 1.660e-6
0.220, 1.554e-6
0.224, 1.683e-6
0.228, 1.566e-6
0.232, 1.542e-6
0.236, 1.601e-6
0.240, 1.448e-6
0.244, 1.495e-6
0.248, 1.519e-6
0.252, 1.377e-6
0.256, 1.424e-6
0.260, 1.389e-6
0.264, 1.342e-6
0.268, 1.448e-6
0.272, 1.401e-6
0.276, 1.307e-6
0.280, 1.260e-6
0.284, 1.342e-6
0.288, 1.283e-6
0.292, 1.318e-6
0.296, 1.224e-6
0.300, 1.342e-6
0.304, 1.248e-6
0.308, 1.260e-6
0.312, 1.130e-6
0.316, 1.177e-6
0.320, 1.283e-6
0.324, 1.095e-6
0.328, 1.283e-6
0.332, 1.236e-6
0.336, 1.177e-6
0.340, 1.177e-6
0.344, 1.213e-6
0.348, 1.095e-6
0.352, 1.271e-6
0.356, 1.248e-6
0.360, 1.071e-6
0.364, 1.248e-6
0.368, 1.177e-6
0.372, 1.201e-6
0.376, 1.118e-6
0.380, 1.248e-6
0.384, 1.224e-6
0.388, 1.048e-6
0.392, 1.083e-6
0.396, 1.236e-6
0.400, 1.107e-6
0.404, 1.248e-6
0.408, 1.165e-6
0.412, 1.154e-6
0.416, 1.201e-6
0.420, 1.095e-6
0.424, 1.071e-6
0.428, 1.201e-6
0.432, 1.154e-6
0.436, 1.083e-6
0.440, 9.653e-7
0.444, 1.083e-6
0.448, 1.083e-6
0.452, 1.012e-6
0.456, 1.048e-6
0.460, 1.059e-6
0.464, 1.118e-6
0.468, 1.201e-6
0.472, 1.036e-6
0.476, 9.888e-7
0.480, 1.083e-6
0.484, 1.130e-6
0.488, 1.012e-6
0.492, 1.142e-6
0.496, 9.535e-7
0.500, 9.535e-7
0.504, 9.653e-7
0.508, 1.001e-6
0.512, 1.283e-6
0.516, 9.888e-7
0.520, 9.653e-7
0.524, 1.154e-6
0.528, 1.107e-6
0.532, 1.107e-6
0.536, 1.001e-6
0.540, 1.024e-6
0.544, 1.165e-6
0.548, 1.001e-6
0.552, 1.177e-6
0.556, 1.154e-6
0.560, 1.165e-6
0.564, 1.107e-6
0.568, 1.154e-6
0.572, 1.307e-6
0.576, 1.260e-6
0.580, 1.189e-6
0.584, 1.330e-6
0.588, 1.330e-6
0.592, 1.318e-6
0.596, 1.330e-6
0.600, 1.460e-6
0.604, 1.471e-6
0.608, 1.530e-6
0.612, 1.625e-6
0.616, 1.789e-6
0.620, 1.825e-6
0.624, 2.048e-6
0.628, 2.201e-6
0.632, 2.248e-6
0.636, 2.625e-6
0.640, 2.861e-6
0.644, 3.108e-6
0.648, 3.555e-6
0.652, 4.014e-6
0.656, 4.862e-6
0.660, 5.403e-6
0.664, 6.251e-6
0.668, 7.216e-6
0.672, 8.240e-6
0.676, 9.076e-6
0.680, 9.900e-6
0.684, 1.037e-5
0.688, 1.098e-5
0.692, 1.111e-5
0.696, 1.107e-5
0.700, 1.131e-5
0.704, 1.116e-5
0.708, 1.091e-5
0.712, 1.070e-5
0.716, 1.034e-5
0.720, 1.004e-5
0.724, 9.677e-6
0.728, 9.323e-6
0.732, 9.064e-6
0.736, 8.747e-6
0.740, 8.535e-6
0.744, 8.264e-6
0.748, 7.993e-6
0.752, 7.699e-6
0.756, 7.534e-6
0.760, 7.499e-6
0.764, 7.452e-6
0.768, 7.181e-6
0.772, 6.887e-6
0.776, 6.945e-6
0.780, 7.016e-6
0.784, 6.828e-6
0.788, 6.875e-6
0.792, 6.686e-6
0.796, 6.651e-6
0.800, 6.651e-6
0.804, 6.498e-6
0.808, 6.439e-6
0.812, 6.416e-6
0.816, 6.463e-6
0.820, 6.274e-6
0.824, 6.169e-6
0.828, 6.169e-6
0.832, 6.157e-6
0.836, 6.121e-6
0.840, 5.968e-6
0.844, 5.921e-6
0.848, 5.992e-6
0.852, 5.862e-6
0.856, 5.698e-6
0.860, 5.780e-6
0.864, 5.686e-6
0.868, 5.592e-6
0.872, 5.580e-6
0.876, 5.462e-6
0.880, 5.486e-6
0.884, 5.486e-6
0.888, 5.286e-6
0.892, 5.250e-6
0.896, 5.297e-6
0.900, 5.262e-6
0.904, 5.227e-6
0.908, 5.121e-6
0.912, 5.062e-6
0.916, 5.168e-6
0.920, 5.168e-6
0.924, 4.968e-6
0.928, 4.944e-6
0.932, 4.862e-6
0.936, 4.862e-6
0.940, 4.874e-6
0.944, 4.732e-6
0.948, 4.850e-6
0.952, 4.544e-6
0.956, 4.662e-6
0.960, 4.662e-6
0.964, 4.520e-6
0.968, 4.568e-6
0.972, 4.462e-6
0.976, 4.603e-6
0.980, 4.638e-6
0.984, 4.438e-6
0.988, 4.497e-6
0.992, 4.438e-6
0.996, 4.462e-6
1.000, 4.391e-6
