July 22, 2025   20:33:19
Differential Pulse Voltammetry
File: e:\Data Source:  Experiment
Instrument Model:  CHI620E
Header: 
Note: 

Init E (V) = 0
Final E (V) = 1
Incr E (V) = 0.004
Amplitude (V) = 0.05
Pulse Width (sec) = 0.05
Sample Width (sec) = 0.0167
Pulse Period (sec) = 0.5
Quiet Time (sec) = 2
Sensitivity (A/V) = 0.01

Results:

Channel 1:
Ep = 0.732V
ip = 7.511e-6A
Ap = 9.912e-7VA

Potential/V, Current/A

0.004, 4.097e-6
0.008, 3.791e-6
0.012, 3.579e-6
0.016, 3.390e-6
0.020, 3.049e-6
0.024, 2.978e-6
0.028, 2.943e-6
0.032, 2.849e-6
0.036, 2.566e-6
0.040, 2.590e-6
0.044, 2.472e-6
0.048, 2.484e-6
0.052, 2.237e-6
0.056, 2.272e-6
0.060, 2.260e-6
0.064, 2.178e-6
0.068, 2.154e-6
0.072, 2.037e-6
0.076, 2.154e-6
0.080, 2.037e-6
0.084, 1.931e-6
0.088, 1.978e-6
0.092, 1.966e-6
0.096, 1.848e-6
0.100, 1.825e-6
0.104, 1.825e-6
0.108, 1.872e-6
0.112, 1.742e-6
0.116, 1.672e-6
0.120, 1.813e-6
0.124, 1.683e-6
0.128, 1.672e-6
0.132, 1.495e-6
0.136, 1.566e-6
0.140, 1.672e-6
0.144, 1.577e-6
0.148, 1.530e-6
0.152, 1.577e-6
0.156, 1.436e-6
0.160, 1.672e-6
0.164, 1.460e-6
0.168, 1.401e-6
0.172, 1.471e-6
0.176, 1.436e-6
0.180, 1.471e-6
0.184, 1.354e-6
0.188, 1.377e-6
0.192, 1.401e-6
0.196, 1.366e-6
0.200, 1.342e-6
0.204, 1.307e-6
0.208, 1.165e-6
0.212, 1.283e-6
0.216, 1.318e-6
0.220, 1.189e-6
0.224, 1.236e-6
0.228, 1.248e-6
0.232, 1.071e-6
0.236, 1.201e-6
0.240, 1.260e-6
0.244, 1.071e-6
0.248, 1.024e-6
0.252, 1.083e-6
0.256, 1.024e-6
0.260, 9.535e-7
0.264, 1.048e-6
0.268, 1.048e-6
0.272, 9.182e-7
0.276, 9.888e-7
0.280, 1.107e-6
0.284, 1.071e-6
0.288, 9.771e-7
0.292, 8.947e-7
0.296, 1.036e-6
0.300, 1.036e-6
0.304, 1.012e-6
0.308, 9.771e-7
0.312, 8.476e-7
0.316, 8.240e-7
0.320, 1.001e-6
0.324, 8.358e-7
0.328, 9.182e-7
0.332, 8.711e-7
0.336, 9.653e-7
0.340, 7.652e-7
0.344, 9.064e-7
0.348, 8.594e-7
0.352, 8.594e-7
0.356, 1.036e-6
0.360, 9.064e-7
0.364, 9.182e-7
0.368, 1.001e-6
0.372, 9.888e-7
0.376, 9.182e-7
0.380, 8.594e-7
0.384, 9.653e-7
0.388, 8.711e-7
0.392, 8.594e-7
0.396, 8.476e-7
0.400, 9.182e-7
0.404, 8.476e-7
0.408, 9.888e-7
0.412, 8.711e-7
0.416, 8.123e-7
0.420, 8.123e-7
0.424, 8.123e-7
0.428, 9.418e-7
0.432, 9.300e-7
0.436, 9.653e-7
0.440, 6.121e-7
0.444, 6.592e-7
0.448, 7.770e-7
0.452, 8.476e-7
0.456, 8.476e-7
0.460, 8.358e-7
0.464, 8.947e-7
0.468, 9.653e-7
0.472, 8.123e-7
0.476, 7.887e-7
0.480, 8.358e-7
0.484, 8.240e-7
0.488, 7.769e-7
0.492, 8.711e-7
0.496, 8.123e-7
0.500, 7.652e-7
0.504, 8.594e-7
0.508, 8.711e-7
0.512, 7.887e-7
0.516, 7.652e-7
0.520, 8.711e-7
0.524, 7.534e-7
0.528, 8.947e-7
0.532, 8.240e-7
0.536, 8.711e-7
0.540, 8.005e-7
0.544, 7.887e-7
0.548, 8.240e-7
0.552, 9.182e-7
0.556, 8.358e-7
0.560, 8.594e-7
0.564, 8.711e-7
0.568, 8.593e-7
0.572, 9.888e-7
0.576, 9.888e-7
0.580, 8.476e-7
0.584, 9.300e-7
0.588, 1.024e-6
0.592, 9.771e-7
0.596, 1.048e-6
0.600, 9.653e-7
0.604, 1.001e-6
0.608, 1.095e-6
0.612, 1.001e-6
0.616, 1.024e-6
0.620, 1.048e-6
0.624, 1.118e-6
0.628, 1.012e-6
0.632, 1.071e-6
0.636, 1.283e-6
0.640, 1.377e-6
0.644, 1.260e-6
0.648, 1.436e-6
0.652, 1.483e-6
0.656, 1.730e-6
0.660, 1.919e-6
0.664, 2.225e-6
0.668, 2.437e-6
0.672, 2.755e-6
0.676, 3.143e-6
0.680, 3.732e-6
0.684, 4.285e-6
0.688, 5.097e-6
0.692, 5.874e-6
0.696, 6.769e-6
0.700, 7.699e-6
0.704, 8.758e-6
0.708, 9.347e-6
0.712, 9.771e-6
0.716, 9.865e-6
0.720, 9.994e-6
0.724, 9.865e-6
0.728, 1.001e-5
0.732, 1.025e-5
0.736, 1.010e-5
0.740, 9.924e-6
0.744, 9.888e-6
0.748, 9.253e-6
0.752, 9.217e-6
0.756, 8.841e-6
0.760, 8.511e-6
0.764, 8.335e-6
0.768, 8.158e-6
0.772, 7.970e-6
0.776, 7.981e-6
0.780, 7.864e-6
0.784, 7.699e-6
0.788, 7.452e-6
0.792, 7.558e-6
0.796, 7.381e-6
0.800, 7.252e-6
0.804, 7.228e-6
0.808, 7.193e-6
0.812, 7.287e-6
0.816, 7.075e-6
0.820, 6.945e-6
0.824, 6.734e-6
0.828, 6.792e-6
0.832, 6.828e-6
0.836, 6.698e-6
0.840, 6.628e-6
0.844, 6.616e-6
0.848, 6.510e-6
0.852, 6.380e-6
0.856, 6.451e-6
0.860, 6.345e-6
0.864, 6.404e-6
0.868, 6.121e-6
0.872, 6.133e-6
0.876, 6.086e-6
0.880, 6.133e-6
0.884, 5.980e-6
0.888, 5.898e-6
0.892, 5.780e-6
0.896, 5.874e-6
0.900, 5.674e-6
0.904, 5.745e-6
0.908, 5.627e-6
0.912, 5.474e-6
0.916, 5.545e-6
0.920, 5.344e-6
0.924, 5.392e-6
0.928, 5.333e-6
0.932, 5.239e-6
0.936, 5.309e-6
0.940, 5.180e-6
0.944, 5.133e-6
0.948, 5.156e-6
0.952, 4.991e-6
0.956, 5.062e-6
0.960, 4.944e-6
0.964, 4.897e-6
0.968, 4.968e-6
0.972, 4.874e-6
0.976, 4.803e-6
0.980, 4.932e-6
0.984, 4.803e-6
0.988, 4.862e-6
0.992, 4.791e-6
0.996, 4.650e-6
1.000, 4.697e-6
