July 22, 2025   20:21:35
Differential Pulse Voltammetry
File: e:\Data Source:  Experiment
Instrument Model:  CHI620E
Header: 
Note: 

Init E (V) = 0
Final E (V) = 1
Incr E (V) = 0.004
Amplitude (V) = 0.05
Pulse Width (sec) = 0.05
Sample Width (sec) = 0.0167
Pulse Period (sec) = 0.5
Quiet Time (sec) = 2
Sensitivity (A/V) = 0.01

Results:

Channel 1:
Ep = 0.700V
ip = 8.295e-6A
Ap = 1.065e-6VA

Potential/V, Current/A

0.004, 4.297e-6
0.008, 3.991e-6
0.012, 3.767e-6
0.016, 3.590e-6
0.020, 3.273e-6
0.024, 3.237e-6
0.028, 3.143e-6
0.032, 3.002e-6
0.036, 2.908e-6
0.040, 2.766e-6
0.044, 2.778e-6
0.048, 2.743e-6
0.052, 2.602e-6
0.056, 2.484e-6
0.060, 2.531e-6
0.064, 2.507e-6
0.068, 2.319e-6
0.072, 2.354e-6
0.076, 2.378e-6
0.080, 2.413e-6
0.084, 2.390e-6
0.088, 2.190e-6
0.092, 2.237e-6
0.096, 2.296e-6
0.100, 2.178e-6
0.104, 2.190e-6
0.108, 2.225e-6
0.112, 2.025e-6
0.116, 2.142e-6
0.120, 1.989e-6
0.124, 2.213e-6
0.128, 2.037e-6
0.132, 1.954e-6
0.136, 1.966e-6
0.140, 1.931e-6
0.144, 1.989e-6
0.148, 1.966e-6
0.152, 1.907e-6
0.156, 1.813e-6
0.160, 1.954e-6
0.164, 1.919e-6
0.168, 1.931e-6
0.172, 1.872e-6
0.176, 1.895e-6
0.180, 1.895e-6
0.184, 1.895e-6
0.188, 1.695e-6
0.192, 1.707e-6
0.196, 1.636e-6
0.200, 1.707e-6
0.204, 1.672e-6
0.208, 1.636e-6
0.212, 1.566e-6
0.216, 1.636e-6
0.220, 1.460e-6
0.224, 1.613e-6
0.228, 1.483e-6
0.232, 1.601e-6
0.236, 1.483e-6
0.240, 1.448e-6
0.244, 1.577e-6
0.248, 1.377e-6
0.252, 1.507e-6
0.256, 1.471e-6
0.260, 1.283e-6
0.264, 1.377e-6
0.268, 1.389e-6
0.272, 1.295e-6
0.276, 1.189e-6
0.280, 1.354e-6
0.284, 1.213e-6
0.288, 1.083e-6
0.292, 1.154e-6
0.296, 1.236e-6
0.300, 1.295e-6
0.304, 1.307e-6
0.308, 1.366e-6
0.312, 1.177e-6
0.316, 1.048e-6
0.320, 1.083e-6
0.324, 1.165e-6
0.328, 1.177e-6
0.332, 1.107e-6
0.336, 1.059e-6
0.340, 1.012e-6
0.344, 1.189e-6
0.348, 1.189e-6
0.352, 1.165e-6
0.356, 1.118e-6
0.360, 1.118e-6
0.364, 1.165e-6
0.368, 1.130e-6
0.372, 1.083e-6
0.376, 1.283e-6
0.380, 1.177e-6
0.384, 1.177e-6
0.388, 1.024e-6
0.392, 1.059e-6
0.396, 1.083e-6
0.400, 1.130e-6
0.404, 1.236e-6
0.408, 1.201e-6
0.412, 1.095e-6
0.416, 1.036e-6
0.420, 1.059e-6
0.424, 8.711e-7
0.428, 1.154e-6
0.432, 9.653e-7
0.436, 1.001e-6
0.440, 8.594e-7
0.444, 1.224e-6
0.448, 9.300e-7
0.452, 1.012e-6
0.456, 1.036e-6
0.460, 1.001e-6
0.464, 9.771e-7
0.468, 1.012e-6
0.472, 9.535e-7
0.476, 1.036e-6
0.480, 9.418e-7
0.484, 9.182e-7
0.488, 9.300e-7
0.492, 1.071e-6
0.496, 1.095e-6
0.500, 1.083e-6
0.504, 1.095e-6
0.508, 9.418e-7
0.512, 9.653e-7
0.516, 9.653e-7
0.520, 1.059e-6
0.524, 1.177e-6
0.528, 9.653e-7
0.532, 9.888e-7
0.536, 9.300e-7
0.540, 9.888e-7
0.544, 1.059e-6
0.548, 9.064e-7
0.552, 1.048e-6
0.556, 1.130e-6
0.560, 1.024e-6
0.564, 9.771e-7
0.568, 9.771e-7
0.572, 1.071e-6
0.576, 1.130e-6
0.580, 1.177e-6
0.584, 1.224e-6
0.588, 1.236e-6
0.592, 1.366e-6
0.596, 1.283e-6
0.600, 1.342e-6
0.604, 1.530e-6
0.608, 1.636e-6
0.612, 1.554e-6
0.616, 1.825e-6
0.620, 1.825e-6
0.624, 2.119e-6
0.628, 2.260e-6
0.632, 2.449e-6
0.636, 2.755e-6
0.640, 3.131e-6
0.644, 3.414e-6
0.648, 3.967e-6
0.652, 4.556e-6
0.656, 5.321e-6
0.660, 5.874e-6
0.664, 6.663e-6
0.668, 7.393e-6
0.672, 8.276e-6
0.676, 8.794e-6
0.680, 9.382e-6
0.684, 9.818e-6
0.688, 1.030e-5
0.692, 1.051e-5
0.696, 1.076e-5
0.700, 1.087e-5
0.704, 1.083e-5
0.708, 1.071e-5
0.712, 1.054e-5
0.716, 1.039e-5
0.720, 1.007e-5
0.724, 9.841e-6
0.728, 9.594e-6
0.732, 9.300e-6
0.736, 8.982e-6
0.740, 8.582e-6
0.744, 8.464e-6
0.748, 8.335e-6
0.752, 7.970e-6
0.756, 7.722e-6
0.760, 7.569e-6
0.764, 7.405e-6
0.768, 7.369e-6
0.772, 7.193e-6
0.776, 7.146e-6
0.780, 7.004e-6
0.784, 6.875e-6
0.788, 6.969e-6
0.792, 6.757e-6
0.796, 6.698e-6
0.800, 6.592e-6
0.804, 6.522e-6
0.808, 6.533e-6
0.812, 6.686e-6
0.816, 6.380e-6
0.820, 6.380e-6
0.824, 6.204e-6
0.828, 6.216e-6
0.832, 6.169e-6
0.836, 6.051e-6
0.840, 6.051e-6
0.844, 6.110e-6
0.848, 5.980e-6
0.852, 5.815e-6
0.856, 5.780e-6
0.860, 5.874e-6
0.864, 5.745e-6
0.868, 5.721e-6
0.872, 5.756e-6
0.876, 5.662e-6
0.880, 5.639e-6
0.884, 5.462e-6
0.888, 5.262e-6
0.892, 5.427e-6
0.896, 5.392e-6
0.900, 5.286e-6
0.904, 5.392e-6
0.908, 5.156e-6
0.912, 5.215e-6
0.916, 5.144e-6
0.920, 5.109e-6
0.924, 5.003e-6
0.928, 5.121e-6
0.932, 4.921e-6
0.936, 4.885e-6
0.940, 4.944e-6
0.944, 4.874e-6
0.948, 4.838e-6
0.952, 4.803e-6
0.956, 4.862e-6
0.960, 4.768e-6
0.964, 4.673e-6
0.968, 4.650e-6
0.972, 4.591e-6
0.976, 4.603e-6
0.980, 4.697e-6
0.984, 4.603e-6
0.988, 4.626e-6
0.992, 4.579e-6
0.996, 4.615e-6
1.000, 4.391e-6
