July 22, 2025   21:31:13
Differential Pulse Voltammetry
File: e:\Data Source:  Experiment
Instrument Model:  CHI620E
Header: 
Note: 

Init E (V) = 0
Final E (V) = 1
Incr E (V) = 0.004
Amplitude (V) = 0.05
Pulse Width (sec) = 0.05
Sample Width (sec) = 0.0167
Pulse Period (sec) = 0.5
Quiet Time (sec) = 2
Sensitivity (A/V) = 0.01

Results:

Channel 1:
Ep = 0.752V
ip = 7.464e-6A
Ap = 8.282e-7VA

Potential/V, Current/A

0.004, 3.955e-6
0.008, 3.590e-6
0.012, 3.296e-6
0.016, 3.190e-6
0.020, 2.884e-6
0.024, 2.790e-6
0.028, 2.660e-6
0.032, 2.519e-6
0.036, 2.354e-6
0.040, 2.566e-6
0.044, 2.307e-6
0.048, 2.142e-6
0.052, 2.166e-6
0.056, 2.142e-6
0.060, 2.142e-6
0.064, 2.037e-6
0.068, 1.872e-6
0.072, 1.989e-6
0.076, 1.966e-6
0.080, 1.884e-6
0.084, 1.848e-6
0.088, 1.754e-6
0.092, 1.778e-6
0.096, 1.742e-6
0.100, 1.648e-6
0.104, 1.778e-6
0.108, 1.742e-6
0.112, 1.719e-6
0.116, 1.542e-6
0.120, 1.601e-6
0.124, 1.460e-6
0.128, 1.530e-6
0.132, 1.483e-6
0.136, 1.413e-6
0.140, 1.366e-6
0.144, 1.401e-6
0.148, 1.507e-6
0.152, 1.460e-6
0.156, 1.448e-6
0.160, 1.471e-6
0.164, 1.236e-6
0.168, 1.248e-6
0.172, 1.330e-6
0.176, 1.354e-6
0.180, 1.366e-6
0.184, 1.260e-6
0.188, 1.213e-6
0.192, 1.236e-6
0.196, 1.107e-6
0.200, 1.236e-6
0.204, 1.224e-6
0.208, 1.130e-6
0.212, 1.095e-6
0.216, 1.048e-6
0.220, 1.001e-6
0.224, 1.071e-6
0.228, 8.829e-7
0.232, 1.130e-6
0.236, 1.095e-6
0.240, 1.165e-6
0.244, 1.024e-6
0.248, 9.182e-7
0.252, 9.771e-7
0.256, 9.888e-7
0.260, 9.535e-7
0.264, 9.182e-7
0.268, 1.059e-6
0.272, 9.182e-7
0.276, 8.947e-7
0.280, 9.182e-7
0.284, 8.711e-7
0.288, 9.064e-7
0.292, 9.418e-7
0.296, 9.182e-7
0.300, 9.653e-7
0.304, 8.123e-7
0.308, 9.418e-7
0.312, 8.593e-7
0.316, 9.182e-7
0.320, 8.476e-7
0.324, 8.476e-7
0.328, 7.770e-7
0.332, 7.770e-7
0.336, 7.652e-7
0.340, 8.005e-7
0.344, 7.887e-7
0.348, 8.829e-7
0.352, 8.240e-7
0.356, 7.887e-7
0.360, 8.947e-7
0.364, 8.829e-7
0.368, 8.005e-7
0.372, 8.005e-7
0.376, 9.418e-7
0.380, 9.535e-7
0.384, 7.887e-7
0.388, 7.181e-7
0.392, 8.123e-7
0.396, 9.653e-7
0.400, 7.063e-7
0.404, 7.887e-7
0.408, 8.711e-7
0.412, 6.710e-7
0.416, 8.358e-7
0.420, 7.416e-7
0.424, 6.828e-7
0.428, 7.769e-7
0.432, 7.299e-7
0.436, 7.063e-7
0.440, 7.063e-7
0.444, 6.945e-7
0.448, 8.240e-7
0.452, 4.826e-7
0.456, 7.770e-7
0.460, 7.887e-7
0.464, 7.652e-7
0.468, 7.299e-7
0.472, 7.181e-7
0.476, 7.181e-7
0.480, 6.710e-7
0.484, 7.652e-7
0.488, 6.828e-7
0.492, 6.357e-7
0.496, 8.240e-7
0.500, 8.593e-7
0.504, 7.063e-7
0.508, 8.829e-7
0.512, 8.476e-7
0.516, 7.063e-7
0.520, 7.652e-7
0.524, 7.181e-7
0.528, 7.887e-7
0.532, 7.416e-7
0.536, 8.358e-7
0.540, 6.945e-7
0.544, 8.005e-7
0.548, 6.475e-7
0.552, 7.652e-7
0.556, 8.240e-7
0.560, 8.005e-7
0.564, 9.300e-7
0.568, 5.886e-7
0.572, 8.005e-7
0.576, 8.947e-7
0.580, 8.123e-7
0.584, 8.005e-7
0.588, 8.240e-7
0.592, 8.711e-7
0.596, 8.476e-7
0.600, 7.887e-7
0.604, 8.594e-7
0.608, 8.711e-7
0.612, 8.594e-7
0.616, 8.829e-7
0.620, 7.652e-7
0.624, 8.476e-7
0.628, 8.829e-7
0.632, 8.240e-7
0.636, 8.947e-7
0.640, 8.947e-7
0.644, 8.123e-7
0.648, 8.593e-7
0.652, 9.888e-7
0.656, 1.012e-6
0.660, 1.095e-6
0.664, 9.064e-7
0.668, 1.248e-6
0.672, 1.154e-6
0.676, 1.366e-6
0.680, 1.519e-6
0.684, 1.530e-6
0.688, 1.660e-6
0.692, 1.836e-6
0.696, 2.154e-6
0.700, 2.401e-6
0.704, 2.766e-6
0.708, 3.120e-6
0.712, 3.779e-6
0.716, 4.297e-6
0.720, 4.944e-6
0.724, 5.615e-6
0.728, 6.251e-6
0.732, 7.110e-6
0.736, 8.040e-6
0.740, 8.711e-6
0.744, 9.064e-6
0.748, 9.394e-6
0.752, 9.747e-6
0.756, 9.582e-6
0.760, 9.265e-6
0.764, 8.958e-6
0.768, 8.582e-6
0.772, 8.028e-6
0.776, 8.028e-6
0.780, 7.934e-6
0.784, 7.605e-6
0.788, 7.452e-6
0.792, 7.240e-6
0.796, 7.146e-6
0.800, 7.063e-6
0.804, 6.863e-6
0.808, 6.663e-6
0.812, 6.616e-6
0.816, 6.663e-6
0.820, 6.604e-6
0.824, 6.427e-6
0.828, 6.286e-6
0.832, 6.333e-6
0.836, 6.192e-6
0.840, 6.298e-6
0.844, 6.098e-6
0.848, 6.157e-6
0.852, 6.063e-6
0.856, 6.204e-6
0.860, 5.921e-6
0.864, 5.815e-6
0.868, 5.815e-6
0.872, 5.804e-6
0.876, 5.721e-6
0.880, 5.627e-6
0.884, 5.674e-6
0.888, 5.450e-6
0.892, 5.474e-6
0.896, 5.568e-6
0.900, 5.462e-6
0.904, 5.333e-6
0.908, 5.368e-6
0.912, 5.262e-6
0.916, 5.297e-6
0.920, 5.156e-6
0.924, 5.239e-6
0.928, 5.085e-6
0.932, 5.038e-6
0.936, 4.956e-6
0.940, 4.932e-6
0.944, 4.862e-6
0.948, 4.709e-6
0.952, 4.662e-6
0.956, 4.732e-6
0.960, 4.709e-6
0.964, 4.615e-6
0.968, 4.497e-6
0.972, 4.568e-6
0.976, 4.556e-6
0.980, 4.603e-6
0.984, 4.544e-6
0.988, 4.532e-6
0.992, 4.509e-6
0.996, 4.497e-6
1.000, 4.403e-6
