July 11, 2025   19:31:59
Differential Pulse Voltammetry
File: e:\Data Source:  Experiment
Instrument Model:  CHI620E
Header: 
Note: 

Init E (V) = 0
Final E (V) = 1
Incr E (V) = 0.004
Amplitude (V) = 0.05
Pulse Width (sec) = 0.05
Sample Width (sec) = 0.0167
Pulse Period (sec) = 0.5
Quiet Time (sec) = 2
Sensitivity (A/V) = 0.01

Results:

Channel 1:
Ep = 0.732V
ip = 7.635e-6A
Ap = 4.246e-7VA

Potential/V, Current/A

0.004, 7.911e-6
0.008, 7.452e-6
0.012, 7.051e-6
0.016, 6.581e-6
0.020, 6.298e-6
0.024, 6.157e-6
0.028, 6.110e-6
0.032, 5.910e-6
0.036, 5.910e-6
0.040, 5.827e-6
0.044, 5.768e-6
0.048, 5.709e-6
0.052, 5.533e-6
0.056, 5.380e-6
0.060, 5.250e-6
0.064, 5.286e-6
0.068, 5.097e-6
0.072, 5.050e-6
0.076, 5.062e-6
0.080, 4.827e-6
0.084, 4.862e-6
0.088, 4.756e-6
0.092, 4.744e-6
0.096, 4.697e-6
0.100, 4.568e-6
0.104, 4.473e-6
0.108, 4.603e-6
0.112, 4.426e-6
0.116, 4.379e-6
0.120, 4.226e-6
0.124, 4.320e-6
0.128, 4.285e-6
0.132, 4.179e-6
0.136, 3.908e-6
0.140, 3.967e-6
0.144, 4.085e-6
0.148, 4.038e-6
0.152, 3.814e-6
0.156, 3.873e-6
0.160, 3.944e-6
0.164, 3.720e-6
0.168, 3.649e-6
0.172, 3.732e-6
0.176, 3.555e-6
0.180, 3.496e-6
0.184, 3.367e-6
0.188, 3.508e-6
0.192, 3.331e-6
0.196, 3.320e-6
0.200, 3.167e-6
0.204, 3.167e-6
0.208, 3.108e-6
0.212, 2.908e-6
0.216, 3.143e-6
0.220, 2.861e-6
0.224, 2.814e-6
0.228, 2.908e-6
0.232, 2.802e-6
0.236, 2.660e-6
0.240, 2.672e-6
0.244, 2.590e-6
0.248, 2.519e-6
0.252, 2.649e-6
0.256, 2.437e-6
0.260, 2.449e-6
0.264, 2.401e-6
0.268, 2.296e-6
0.272, 2.319e-6
0.276, 2.413e-6
0.280, 2.284e-6
0.284, 2.272e-6
0.288, 2.072e-6
0.292, 2.201e-6
0.296, 2.190e-6
0.300, 2.142e-6
0.304, 2.013e-6
0.308, 2.166e-6
0.312, 2.048e-6
0.316, 1.954e-6
0.320, 1.884e-6
0.324, 1.978e-6
0.328, 1.989e-6
0.332, 1.978e-6
0.336, 1.872e-6
0.340, 1.742e-6
0.344, 1.836e-6
0.348, 1.813e-6
0.352, 1.789e-6
0.356, 1.872e-6
0.360, 1.801e-6
0.364, 1.848e-6
0.368, 1.789e-6
0.372, 1.719e-6
0.376, 1.801e-6
0.380, 1.683e-6
0.384, 1.695e-6
0.388, 1.613e-6
0.392, 1.801e-6
0.396, 1.683e-6
0.400, 1.566e-6
0.404, 1.613e-6
0.408, 1.495e-6
0.412, 1.636e-6
0.416, 1.636e-6
0.420, 1.566e-6
0.424, 1.577e-6
0.428, 1.436e-6
0.432, 1.507e-6
0.436, 1.495e-6
0.440, 1.507e-6
0.444, 1.342e-6
0.448, 1.448e-6
0.452, 1.424e-6
0.456, 1.342e-6
0.460, 1.507e-6
0.464, 1.377e-6
0.468, 1.295e-6
0.472, 1.354e-6
0.476, 1.519e-6
0.480, 1.342e-6
0.484, 1.342e-6
0.488, 1.495e-6
0.492, 1.401e-6
0.496, 1.283e-6
0.500, 1.377e-6
0.504, 1.354e-6
0.508, 1.366e-6
0.512, 1.307e-6
0.516, 1.189e-6
0.520, 1.260e-6
0.524, 1.366e-6
0.528, 1.307e-6
0.532, 1.342e-6
0.536, 1.401e-6
0.540, 1.377e-6
0.544, 1.248e-6
0.548, 1.307e-6
0.552, 1.366e-6
0.556, 1.413e-6
0.560, 1.342e-6
0.564, 1.436e-6
0.568, 1.366e-6
0.572, 1.424e-6
0.576, 1.318e-6
0.580, 1.519e-6
0.584, 1.554e-6
0.588, 1.707e-6
0.592, 1.707e-6
0.596, 1.884e-6
0.600, 2.072e-6
0.604, 2.119e-6
0.608, 2.296e-6
0.612, 2.343e-6
0.616, 2.590e-6
0.620, 2.931e-6
0.624, 3.261e-6
0.628, 3.414e-6
0.632, 4.061e-6
0.636, 4.685e-6
0.640, 5.239e-6
0.644, 6.039e-6
0.648, 6.792e-6
0.652, 7.934e-6
0.656, 9.017e-6
0.660, 1.003e-5
0.664, 1.136e-5
0.668, 1.281e-5
0.672, 1.414e-5
0.676, 1.547e-5
0.680, 1.674e-5
0.684, 1.794e-5
0.688, 1.924e-5
0.692, 2.032e-5
0.696, 2.148e-5
0.700, 2.280e-5
0.704, 2.378e-5
0.708, 2.471e-5
0.712, 2.585e-5
0.716, 2.673e-5
0.720, 2.763e-5
0.724, 2.869e-5
0.728, 2.923e-5
0.732, 2.938e-5
0.736, 2.901e-5
0.740, 2.851e-5
0.744, 2.791e-5
0.748, 2.762e-5
0.752, 2.735e-5
0.756, 2.711e-5
0.760, 2.712e-5
0.764, 2.721e-5
0.768, 2.725e-5
0.772, 2.706e-5
0.776, 2.732e-5
0.780, 2.750e-5
0.784, 2.744e-5
0.788, 2.756e-5
0.792, 2.755e-5
0.796, 2.778e-5
0.800, 2.756e-5
0.804, 2.763e-5
0.808, 2.765e-5
0.812, 2.762e-5
0.816, 2.752e-5
0.820, 2.732e-5
0.824, 2.704e-5
0.828, 2.703e-5
0.832, 2.670e-5
0.836, 2.650e-5
0.840, 2.605e-5
0.844, 2.550e-5
0.848, 2.504e-5
0.852, 2.464e-5
0.856, 2.394e-5
0.860, 2.357e-5
0.864, 2.291e-5
0.868, 2.228e-5
0.872, 2.164e-5
0.876, 2.118e-5
0.880, 2.038e-5
0.884, 1.993e-5
0.888, 1.928e-5
0.892, 1.881e-5
0.896, 1.806e-5
0.900, 1.762e-5
0.904, 1.710e-5
0.908, 1.654e-5
0.912, 1.610e-5
0.916, 1.560e-5
0.920, 1.519e-5
0.924, 1.474e-5
0.928, 1.431e-5
0.932, 1.396e-5
0.936, 1.363e-5
0.940, 1.328e-5
0.944, 1.297e-5
0.948, 1.267e-5
0.952, 1.228e-5
0.956, 1.213e-5
0.960, 1.190e-5
0.964, 1.154e-5
0.968, 1.143e-5
0.972, 1.130e-5
0.976, 1.109e-5
0.980, 1.097e-5
0.984, 1.081e-5
0.988, 1.069e-5
0.992, 1.068e-5
0.996, 1.065e-5
1.000, 1.034e-5
