July 11, 2025   19:34:11
Differential Pulse Voltammetry
File: e:\Data Source:  Experiment
Instrument Model:  CHI620E
Header: 
Note: 

Init E (V) = 0
Final E (V) = 1
Incr E (V) = 0.004
Amplitude (V) = 0.05
Pulse Width (sec) = 0.05
Sample Width (sec) = 0.0167
Pulse Period (sec) = 0.5
Quiet Time (sec) = 2
Sensitivity (A/V) = 0.01

Results:

Channel 1:
Ep = 0.688V
ip = 1.244e-5A
Ap = 6.870e-7VA

Potential/V, Current/A

0.004, 7.805e-6
0.008, 7.075e-6
0.012, 6.769e-6
0.016, 6.498e-6
0.020, 6.263e-6
0.024, 6.145e-6
0.028, 5.957e-6
0.032, 5.839e-6
0.036, 5.768e-6
0.040, 5.721e-6
0.044, 5.698e-6
0.048, 5.498e-6
0.052, 5.368e-6
0.056, 5.191e-6
0.060, 5.227e-6
0.064, 5.191e-6
0.068, 4.932e-6
0.072, 4.980e-6
0.076, 5.015e-6
0.080, 4.897e-6
0.084, 4.685e-6
0.088, 4.615e-6
0.092, 4.650e-6
0.096, 4.615e-6
0.100, 4.367e-6
0.104, 4.426e-6
0.108, 4.509e-6
0.112, 4.426e-6
0.116, 4.273e-6
0.120, 4.191e-6
0.124, 4.156e-6
0.128, 4.167e-6
0.132, 3.979e-6
0.136, 4.014e-6
0.140, 3.979e-6
0.144, 3.767e-6
0.148, 3.979e-6
0.152, 3.873e-6
0.156, 3.861e-6
0.160, 3.767e-6
0.164, 3.626e-6
0.168, 3.708e-6
0.172, 3.673e-6
0.176, 3.579e-6
0.180, 3.567e-6
0.184, 3.461e-6
0.188, 3.390e-6
0.192, 3.390e-6
0.196, 3.284e-6
0.200, 3.296e-6
0.204, 3.390e-6
0.208, 3.190e-6
0.212, 3.237e-6
0.216, 3.108e-6
0.220, 3.002e-6
0.224, 3.096e-6
0.228, 2.978e-6
0.232, 2.802e-6
0.236, 2.931e-6
0.240, 2.837e-6
0.244, 2.884e-6
0.248, 2.637e-6
0.252, 2.649e-6
0.256, 2.708e-6
0.260, 2.613e-6
0.264, 2.578e-6
0.268, 2.660e-6
0.272, 2.672e-6
0.276, 2.613e-6
0.280, 2.343e-6
0.284, 2.578e-6
0.288, 2.543e-6
0.292, 2.343e-6
0.296, 2.366e-6
0.300, 2.401e-6
0.304, 2.437e-6
0.308, 2.437e-6
0.312, 2.166e-6
0.316, 2.178e-6
0.320, 2.460e-6
0.324, 2.354e-6
0.328, 2.142e-6
0.332, 2.260e-6
0.336, 2.154e-6
0.340, 2.142e-6
0.344, 2.119e-6
0.348, 2.072e-6
0.352, 2.048e-6
0.356, 2.178e-6
0.360, 2.119e-6
0.364, 2.178e-6
0.368, 2.072e-6
0.372, 2.001e-6
0.376, 2.095e-6
0.380, 2.154e-6
0.384, 2.095e-6
0.388, 2.001e-6
0.392, 2.060e-6
0.396, 2.095e-6
0.400, 1.966e-6
0.404, 2.072e-6
0.408, 1.942e-6
0.412, 2.037e-6
0.416, 1.989e-6
0.420, 1.825e-6
0.424, 1.848e-6
0.428, 1.931e-6
0.432, 1.884e-6
0.436, 1.813e-6
0.440, 1.836e-6
0.444, 1.895e-6
0.448, 1.942e-6
0.452, 1.683e-6
0.456, 1.860e-6
0.460, 1.801e-6
0.464, 1.848e-6
0.468, 1.754e-6
0.472, 1.730e-6
0.476, 1.719e-6
0.480, 1.754e-6
0.484, 1.695e-6
0.488, 1.707e-6
0.492, 1.836e-6
0.496, 1.683e-6
0.500, 1.801e-6
0.504, 1.672e-6
0.508, 1.707e-6
0.512, 1.730e-6
0.516, 1.789e-6
0.520, 1.848e-6
0.524, 1.801e-6
0.528, 1.754e-6
0.532, 1.766e-6
0.536, 1.789e-6
0.540, 1.778e-6
0.544, 1.848e-6
0.548, 1.919e-6
0.552, 1.919e-6
0.556, 1.825e-6
0.560, 1.989e-6
0.564, 1.978e-6
0.568, 2.072e-6
0.572, 2.107e-6
0.576, 2.166e-6
0.580, 2.166e-6
0.584, 2.260e-6
0.588, 2.390e-6
0.592, 2.566e-6
0.596, 2.578e-6
0.600, 2.931e-6
0.604, 3.096e-6
0.608, 3.202e-6
0.612, 3.602e-6
0.616, 3.849e-6
0.620, 4.273e-6
0.624, 4.815e-6
0.628, 5.321e-6
0.632, 6.169e-6
0.636, 7.134e-6
0.640, 8.335e-6
0.644, 9.735e-6
0.648, 1.168e-5
0.652, 1.383e-5
0.656, 1.621e-5
0.660, 1.889e-5
0.664, 2.160e-5
0.668, 2.463e-5
0.672, 2.750e-5
0.676, 3.007e-5
0.680, 3.210e-5
0.684, 3.299e-5
0.688, 3.320e-5
0.692, 3.295e-5
0.696, 3.238e-5
0.700, 3.211e-5
0.704, 3.180e-5
0.708, 3.121e-5
0.712, 3.097e-5
0.716, 3.069e-5
0.720, 3.048e-5
0.724, 3.040e-5
0.728, 3.001e-5
0.732, 2.983e-5
0.736, 2.979e-5
0.740, 2.947e-5
0.744, 2.935e-5
0.748, 2.930e-5
0.752, 2.912e-5
0.756, 2.898e-5
0.760, 2.901e-5
0.764, 2.885e-5
0.768, 2.883e-5
0.772, 2.863e-5
0.776, 2.886e-5
0.780, 2.903e-5
0.784, 2.904e-5
0.788, 2.910e-5
0.792, 2.909e-5
0.796, 2.891e-5
0.800, 2.898e-5
0.804, 2.905e-5
0.808, 2.903e-5
0.812, 2.884e-5
0.816, 2.866e-5
0.820, 2.848e-5
0.824, 2.793e-5
0.828, 2.791e-5
0.832, 2.762e-5
0.836, 2.708e-5
0.840, 2.660e-5
0.844, 2.618e-5
0.848, 2.579e-5
0.852, 2.519e-5
0.856, 2.458e-5
0.860, 2.406e-5
0.864, 2.347e-5
0.868, 2.283e-5
0.872, 2.210e-5
0.876, 2.145e-5
0.880, 2.094e-5
0.884, 2.013e-5
0.888, 1.949e-5
0.892, 1.894e-5
0.896, 1.825e-5
0.900, 1.780e-5
0.904, 1.699e-5
0.908, 1.666e-5
0.912, 1.612e-5
0.916, 1.560e-5
0.920, 1.516e-5
0.924, 1.480e-5
0.928, 1.429e-5
0.932, 1.376e-5
0.936, 1.349e-5
0.940, 1.314e-5
0.944, 1.300e-5
0.948, 1.257e-5
0.952, 1.227e-5
0.956, 1.197e-5
0.960, 1.177e-5
0.964, 1.154e-5
0.968, 1.118e-5
0.972, 1.114e-5
0.976, 1.089e-5
0.980, 1.077e-5
0.984, 1.071e-5
0.988, 1.049e-5
0.992, 1.041e-5
0.996, 1.027e-5
1.000, 1.019e-5
