July 21, 2025   22:26:38
Differential Pulse Voltammetry
File: e:\Data Source:  Experiment
Instrument Model:  CHI620E
Header: 
Note: 

Init E (V) = 0
Final E (V) = 1
Incr E (V) = 0.004
Amplitude (V) = 0.05
Pulse Width (sec) = 0.05
Sample Width (sec) = 0.0167
Pulse Period (sec) = 0.5
Quiet Time (sec) = 2
Sensitivity (A/V) = 0.01

Results:

Channel 1:
Ep = 0.672V
ip = 1.838e-5A
Ap = 1.504e-6VA

Potential/V, Current/A

0.004, 5.038e-6
0.008, 4.850e-6
0.012, 4.403e-6
0.016, 4.226e-6
0.020, 4.167e-6
0.024, 3.955e-6
0.028, 3.861e-6
0.032, 3.991e-6
0.036, 3.755e-6
0.040, 3.826e-6
0.044, 3.767e-6
0.048, 3.826e-6
0.052, 3.826e-6
0.056, 3.720e-6
0.060, 3.791e-6
0.064, 3.696e-6
0.068, 3.708e-6
0.072, 3.779e-6
0.076, 3.673e-6
0.080, 3.732e-6
0.084, 3.661e-6
0.088, 3.802e-6
0.092, 3.649e-6
0.096, 3.720e-6
0.100, 3.602e-6
0.104, 3.743e-6
0.108, 3.649e-6
0.112, 3.838e-6
0.116, 3.767e-6
0.120, 3.814e-6
0.124, 3.779e-6
0.128, 3.826e-6
0.132, 3.779e-6
0.136, 3.814e-6
0.140, 3.861e-6
0.144, 3.932e-6
0.148, 3.696e-6
0.152, 3.743e-6
0.156, 3.849e-6
0.160, 3.885e-6
0.164, 3.802e-6
0.168, 3.861e-6
0.172, 3.814e-6
0.176, 3.908e-6
0.180, 3.885e-6
0.184, 3.614e-6
0.188, 3.767e-6
0.192, 3.861e-6
0.196, 3.626e-6
0.200, 3.673e-6
0.204, 3.814e-6
0.208, 3.685e-6
0.212, 3.567e-6
0.216, 3.532e-6
0.220, 3.437e-6
0.224, 3.508e-6
0.228, 3.261e-6
0.232, 3.379e-6
0.236, 3.355e-6
0.240, 3.296e-6
0.244, 3.249e-6
0.248, 3.061e-6
0.252, 3.120e-6
0.256, 3.096e-6
0.260, 3.002e-6
0.264, 3.061e-6
0.268, 2.967e-6
0.272, 2.955e-6
0.276, 2.872e-6
0.280, 2.872e-6
0.284, 2.802e-6
0.288, 2.790e-6
0.292, 2.755e-6
0.296, 2.696e-6
0.300, 2.578e-6
0.304, 2.637e-6
0.308, 2.660e-6
0.312, 2.507e-6
0.316, 2.507e-6
0.320, 2.507e-6
0.324, 2.449e-6
0.328, 2.507e-6
0.332, 2.413e-6
0.336, 2.437e-6
0.340, 2.578e-6
0.344, 2.296e-6
0.348, 2.366e-6
0.352, 2.366e-6
0.356, 2.343e-6
0.360, 2.284e-6
0.364, 2.331e-6
0.368, 2.378e-6
0.372, 2.378e-6
0.376, 2.284e-6
0.380, 2.354e-6
0.384, 2.319e-6
0.388, 2.225e-6
0.392, 2.154e-6
0.396, 2.248e-6
0.400, 2.260e-6
0.404, 2.131e-6
0.408, 2.237e-6
0.412, 2.296e-6
0.416, 2.119e-6
0.420, 2.037e-6
0.424, 2.060e-6
0.428, 2.095e-6
0.432, 1.989e-6
0.436, 1.978e-6
0.440, 1.884e-6
0.444, 1.884e-6
0.448, 2.072e-6
0.452, 1.801e-6
0.456, 1.907e-6
0.460, 1.895e-6
0.464, 1.978e-6
0.468, 1.825e-6
0.472, 1.789e-6
0.476, 1.966e-6
0.480, 1.895e-6
0.484, 1.719e-6
0.488, 1.836e-6
0.492, 1.895e-6
0.496, 1.872e-6
0.500, 1.813e-6
0.504, 1.801e-6
0.508, 1.801e-6
0.512, 1.931e-6
0.516, 1.742e-6
0.520, 1.719e-6
0.524, 1.730e-6
0.528, 1.813e-6
0.532, 1.719e-6
0.536, 1.719e-6
0.540, 1.719e-6
0.544, 1.801e-6
0.548, 1.825e-6
0.552, 1.719e-6
0.556, 1.860e-6
0.560, 1.895e-6
0.564, 1.884e-6
0.568, 1.813e-6
0.572, 2.154e-6
0.576, 2.213e-6
0.580, 2.166e-6
0.584, 2.496e-6
0.588, 2.578e-6
0.592, 2.719e-6
0.596, 2.931e-6
0.600, 3.249e-6
0.604, 3.673e-6
0.608, 4.108e-6
0.612, 4.556e-6
0.616, 5.156e-6
0.620, 6.063e-6
0.624, 6.981e-6
0.628, 8.052e-6
0.632, 9.370e-6
0.636, 1.083e-5
0.640, 1.236e-5
0.644, 1.403e-5
0.648, 1.617e-5
0.652, 1.871e-5
0.656, 2.135e-5
0.660, 2.390e-5
0.664, 2.628e-5
0.668, 2.771e-5
0.672, 2.777e-5
0.676, 2.704e-5
0.680, 2.600e-5
0.684, 2.520e-5
0.688, 2.456e-5
0.692, 2.433e-5
0.696, 2.386e-5
0.700, 2.389e-5
0.704, 2.373e-5
0.708, 2.351e-5
0.712, 2.358e-5
0.716, 2.344e-5
0.720, 2.333e-5
0.724, 2.319e-5
0.728, 2.279e-5
0.732, 2.233e-5
0.736, 2.185e-5
0.740, 2.120e-5
0.744, 2.066e-5
0.748, 1.988e-5
0.752, 1.941e-5
0.756, 1.900e-5
0.760, 1.851e-5
0.764, 1.812e-5
0.768, 1.792e-5
0.772, 1.755e-5
0.776, 1.746e-5
0.780, 1.730e-5
0.784, 1.702e-5
0.788, 1.688e-5
0.792, 1.679e-5
0.796, 1.673e-5
0.800, 1.669e-5
0.804, 1.662e-5
0.808, 1.653e-5
0.812, 1.649e-5
0.816, 1.647e-5
0.820, 1.634e-5
0.824, 1.628e-5
0.828, 1.621e-5
0.832, 1.621e-5
0.836, 1.609e-5
0.840, 1.585e-5
0.844, 1.577e-5
0.848, 1.554e-5
0.852, 1.555e-5
0.856, 1.539e-5
0.860, 1.529e-5
0.864, 1.493e-5
0.868, 1.450e-5
0.872, 1.446e-5
0.876, 1.421e-5
0.880, 1.395e-5
0.884, 1.356e-5
0.888, 1.333e-5
0.892, 1.308e-5
0.896, 1.276e-5
0.900, 1.241e-5
0.904, 1.222e-5
0.908, 1.197e-5
0.912, 1.165e-5
0.916, 1.145e-5
0.920, 1.121e-5
0.924, 1.108e-5
0.928, 1.065e-5
0.932, 1.047e-5
0.936, 1.018e-5
0.940, 1.004e-5
0.944, 1.003e-5
0.948, 9.735e-6
0.952, 9.476e-6
0.956, 9.418e-6
0.960, 9.370e-6
0.964, 8.994e-6
0.968, 9.064e-6
0.972, 9.053e-6
0.976, 8.994e-6
0.980, 8.794e-6
0.984, 8.664e-6
0.988, 8.605e-6
0.992, 8.511e-6
0.996, 8.441e-6
1.000, 8.440e-6
