July 21, 2025   21:52:33
Differential Pulse Voltammetry
File: e:\Data Source:  Experiment
Instrument Model:  CHI620E
Header: 
Note: 

Init E (V) = 0
Final E (V) = 1
Incr E (V) = 0.004
Amplitude (V) = 0.05
Pulse Width (sec) = 0.05
Sample Width (sec) = 0.0167
Pulse Period (sec) = 0.5
Quiet Time (sec) = 2
Sensitivity (A/V) = 0.01

Results:

Channel 1:
Ep = 0.552V
ip = 1.726e-5A
Ap = 1.296e-6VA

Potential/V, Current/A

0.004, 9.688e-6
0.008, 9.135e-6
0.012, 8.758e-6
0.016, 8.405e-6
0.020, 8.064e-6
0.024, 7.840e-6
0.028, 7.393e-6
0.032, 7.240e-6
0.036, 7.028e-6
0.040, 6.840e-6
0.044, 6.463e-6
0.048, 6.227e-6
0.052, 5.921e-6
0.056, 5.662e-6
0.060, 5.686e-6
0.064, 5.415e-6
0.068, 5.121e-6
0.072, 5.109e-6
0.076, 4.885e-6
0.080, 4.732e-6
0.084, 4.485e-6
0.088, 4.309e-6
0.092, 4.250e-6
0.096, 4.167e-6
0.100, 4.085e-6
0.104, 4.038e-6
0.108, 3.885e-6
0.112, 3.802e-6
0.116, 3.532e-6
0.120, 3.426e-6
0.124, 3.437e-6
0.128, 3.343e-6
0.132, 3.202e-6
0.136, 3.202e-6
0.140, 3.167e-6
0.144, 3.120e-6
0.148, 2.931e-6
0.152, 2.872e-6
0.156, 2.837e-6
0.160, 2.802e-6
0.164, 2.696e-6
0.168, 2.719e-6
0.172, 2.649e-6
0.176, 2.625e-6
0.180, 2.602e-6
0.184, 2.602e-6
0.188, 2.484e-6
0.192, 2.437e-6
0.196, 2.331e-6
0.200, 2.296e-6
0.204, 2.296e-6
0.208, 2.272e-6
0.212, 2.142e-6
0.216, 1.989e-6
0.220, 2.013e-6
0.224, 2.131e-6
0.228, 1.825e-6
0.232, 2.001e-6
0.236, 1.884e-6
0.240, 1.884e-6
0.244, 1.907e-6
0.248, 1.754e-6
0.252, 1.730e-6
0.256, 1.778e-6
0.260, 1.613e-6
0.264, 1.695e-6
0.268, 1.613e-6
0.272, 1.719e-6
0.276, 1.601e-6
0.280, 1.613e-6
0.284, 1.542e-6
0.288, 1.495e-6
0.292, 1.507e-6
0.296, 1.495e-6
0.300, 1.577e-6
0.304, 1.342e-6
0.308, 1.342e-6
0.312, 1.495e-6
0.316, 1.248e-6
0.320, 1.248e-6
0.324, 1.260e-6
0.328, 1.118e-6
0.332, 1.271e-6
0.336, 1.260e-6
0.340, 1.236e-6
0.344, 1.142e-6
0.348, 1.165e-6
0.352, 1.118e-6
0.356, 1.165e-6
0.360, 1.177e-6
0.364, 1.236e-6
0.368, 1.165e-6
0.372, 1.071e-6
0.376, 1.107e-6
0.380, 1.236e-6
0.384, 1.213e-6
0.388, 1.095e-6
0.392, 1.236e-6
0.396, 1.213e-6
0.400, 1.059e-6
0.404, 1.213e-6
0.408, 1.213e-6
0.412, 1.283e-6
0.416, 1.260e-6
0.420, 1.248e-6
0.424, 1.366e-6
0.428, 1.330e-6
0.432, 1.424e-6
0.436, 1.483e-6
0.440, 1.424e-6
0.444, 1.707e-6
0.448, 1.789e-6
0.452, 1.860e-6
0.456, 2.142e-6
0.460, 2.413e-6
0.464, 2.496e-6
0.468, 2.837e-6
0.472, 3.096e-6
0.476, 3.496e-6
0.480, 4.026e-6
0.484, 4.520e-6
0.488, 5.286e-6
0.492, 6.110e-6
0.496, 7.075e-6
0.500, 8.146e-6
0.504, 9.276e-6
0.508, 1.054e-5
0.512, 1.181e-5
0.516, 1.321e-5
0.520, 1.492e-5
0.524, 1.663e-5
0.528, 1.820e-5
0.532, 2.004e-5
0.536, 2.173e-5
0.540, 2.351e-5
0.544, 2.511e-5
0.548, 2.643e-5
0.552, 2.702e-5
0.556, 2.678e-5
0.560, 2.639e-5
0.564, 2.566e-5
0.568, 2.483e-5
0.572, 2.411e-5
0.576, 2.324e-5
0.580, 2.257e-5
0.584, 2.188e-5
0.588, 2.150e-5
0.592, 2.085e-5
0.596, 2.028e-5
0.600, 1.973e-5
0.604, 1.920e-5
0.608, 1.893e-5
0.612, 1.828e-5
0.616, 1.811e-5
0.620, 1.768e-5
0.624, 1.719e-5
0.628, 1.694e-5
0.632, 1.662e-5
0.636, 1.657e-5
0.640, 1.632e-5
0.644, 1.614e-5
0.648, 1.588e-5
0.652, 1.593e-5
0.656, 1.587e-5
0.660, 1.580e-5
0.664, 1.574e-5
0.668, 1.572e-5
0.672, 1.566e-5
0.676, 1.555e-5
0.680, 1.546e-5
0.684, 1.553e-5
0.688, 1.543e-5
0.692, 1.534e-5
0.696, 1.522e-5
0.700, 1.523e-5
0.704, 1.509e-5
0.708, 1.496e-5
0.712, 1.504e-5
0.716, 1.489e-5
0.720, 1.460e-5
0.724, 1.449e-5
0.728, 1.434e-5
0.732, 1.415e-5
0.736, 1.399e-5
0.740, 1.354e-5
0.744, 1.349e-5
0.748, 1.328e-5
0.752, 1.326e-5
0.756, 1.287e-5
0.760, 1.267e-5
0.764, 1.243e-5
0.768, 1.216e-5
0.772, 1.176e-5
0.776, 1.164e-5
0.780, 1.138e-5
0.784, 1.138e-5
0.788, 1.115e-5
0.792, 1.095e-5
0.796, 1.071e-5
0.800, 1.045e-5
0.804, 1.019e-5
0.808, 1.004e-5
0.812, 9.924e-6
0.816, 9.841e-6
0.820, 9.594e-6
0.824, 9.441e-6
0.828, 9.476e-6
0.832, 9.347e-6
0.836, 9.017e-6
0.840, 8.864e-6
0.844, 8.935e-6
0.848, 8.711e-6
0.852, 8.688e-6
0.856, 8.511e-6
0.860, 8.535e-6
0.864, 8.429e-6
0.868, 8.299e-6
0.872, 8.276e-6
0.876, 8.264e-6
0.880, 8.287e-6
0.884, 8.405e-6
0.888, 7.958e-6
0.892, 8.028e-6
0.896, 8.170e-6
0.900, 8.064e-6
0.904, 8.205e-6
0.908, 8.111e-6
0.912, 8.252e-6
0.916, 8.087e-6
0.920, 8.170e-6
0.924, 8.170e-6
0.928, 8.252e-6
0.932, 8.158e-6
0.936, 8.217e-6
0.940, 8.299e-6
0.944, 8.370e-6
0.948, 8.264e-6
0.952, 8.417e-6
0.956, 8.441e-6
0.960, 8.546e-6
0.964, 8.476e-6
0.968, 8.594e-6
0.972, 8.723e-6
0.976, 8.535e-6
0.980, 8.699e-6
0.984, 8.758e-6
0.988, 8.805e-6
0.992, 8.958e-6
0.996, 8.864e-6
1.000, 8.853e-6
