July 21, 2025   22:42:31
Differential Pulse Voltammetry
File: e:\Data Source:  Experiment
Instrument Model:  CHI620E
Header: 
Note: 

Init E (V) = 0
Final E (V) = 1
Incr E (V) = 0.004
Amplitude (V) = 0.05
Pulse Width (sec) = 0.05
Sample Width (sec) = 0.0167
Pulse Period (sec) = 0.5
Quiet Time (sec) = 2
Sensitivity (A/V) = 0.01

Results:

Channel 1:
Ep = 0.764V
ip = 1.661e-5A
Ap = 2.179e-6VA

Potential/V, Current/A

0.004, 4.391e-6
0.008, 4.285e-6
0.012, 3.955e-6
0.016, 3.908e-6
0.020, 3.814e-6
0.024, 3.732e-6
0.028, 3.614e-6
0.032, 3.708e-6
0.036, 3.520e-6
0.040, 3.614e-6
0.044, 3.437e-6
0.048, 3.237e-6
0.052, 3.273e-6
0.056, 3.084e-6
0.060, 3.131e-6
0.064, 3.014e-6
0.068, 2.990e-6
0.072, 2.861e-6
0.076, 2.978e-6
0.080, 2.978e-6
0.084, 2.896e-6
0.088, 2.790e-6
0.092, 2.825e-6
0.096, 2.884e-6
0.100, 2.731e-6
0.104, 2.778e-6
0.108, 2.766e-6
0.112, 2.743e-6
0.116, 2.696e-6
0.120, 2.660e-6
0.124, 2.755e-6
0.128, 2.625e-6
0.132, 2.496e-6
0.136, 2.531e-6
0.140, 2.637e-6
0.144, 2.555e-6
0.148, 2.496e-6
0.152, 2.484e-6
0.156, 2.531e-6
0.160, 2.519e-6
0.164, 2.366e-6
0.168, 2.496e-6
0.172, 2.425e-6
0.176, 2.248e-6
0.180, 2.307e-6
0.184, 2.248e-6
0.188, 2.284e-6
0.192, 2.107e-6
0.196, 2.107e-6
0.200, 2.201e-6
0.204, 2.248e-6
0.208, 2.084e-6
0.212, 2.072e-6
0.216, 1.966e-6
0.220, 2.001e-6
0.224, 1.884e-6
0.228, 1.966e-6
0.232, 1.825e-6
0.236, 1.907e-6
0.240, 1.836e-6
0.244, 1.707e-6
0.248, 1.660e-6
0.252, 1.707e-6
0.256, 1.648e-6
0.260, 1.601e-6
0.264, 1.483e-6
0.268, 1.542e-6
0.272, 1.413e-6
0.276, 1.448e-6
0.280, 1.354e-6
0.284, 1.389e-6
0.288, 1.318e-6
0.292, 1.330e-6
0.296, 1.401e-6
0.300, 1.389e-6
0.304, 1.283e-6
0.308, 1.366e-6
0.312, 1.248e-6
0.316, 1.236e-6
0.320, 1.366e-6
0.324, 1.142e-6
0.328, 1.213e-6
0.332, 1.224e-6
0.336, 1.248e-6
0.340, 1.154e-6
0.344, 1.271e-6
0.348, 1.224e-6
0.352, 1.248e-6
0.356, 1.083e-6
0.360, 1.118e-6
0.364, 1.295e-6
0.368, 1.118e-6
0.372, 1.142e-6
0.376, 9.771e-7
0.380, 1.059e-6
0.384, 1.189e-6
0.388, 1.024e-6
0.392, 1.165e-6
0.396, 1.189e-6
0.400, 1.048e-6
0.404, 1.154e-6
0.408, 1.012e-6
0.412, 1.142e-6
0.416, 9.653e-7
0.420, 1.001e-6
0.424, 1.036e-6
0.428, 1.059e-6
0.432, 8.829e-7
0.436, 9.182e-7
0.440, 9.300e-7
0.444, 9.771e-7
0.448, 7.887e-7
0.452, 9.535e-7
0.456, 9.535e-7
0.460, 8.593e-7
0.464, 8.594e-7
0.468, 8.711e-7
0.472, 8.240e-7
0.476, 7.887e-7
0.480, 9.888e-7
0.484, 8.947e-7
0.488, 9.653e-7
0.492, 8.594e-7
0.496, 8.947e-7
0.500, 9.064e-7
0.504, 8.947e-7
0.508, 9.771e-7
0.512, 9.300e-7
0.516, 7.769e-7
0.520, 8.005e-7
0.524, 8.594e-7
0.528, 8.358e-7
0.532, 8.829e-7
0.536, 8.947e-7
0.540, 9.653e-7
0.544, 9.064e-7
0.548, 7.534e-7
0.552, 7.299e-7
0.556, 9.653e-7
0.560, 9.771e-7
0.564, 8.594e-7
0.568, 8.711e-7
0.572, 1.048e-6
0.576, 1.024e-6
0.580, 8.711e-7
0.584, 1.071e-6
0.588, 1.048e-6
0.592, 1.048e-6
0.596, 1.071e-6
0.600, 1.201e-6
0.604, 1.213e-6
0.608, 1.177e-6
0.612, 1.130e-6
0.616, 1.189e-6
0.620, 1.248e-6
0.624, 1.260e-6
0.628, 1.401e-6
0.632, 1.389e-6
0.636, 1.566e-6
0.640, 1.742e-6
0.644, 1.848e-6
0.648, 2.237e-6
0.652, 2.660e-6
0.656, 2.814e-6
0.660, 3.190e-6
0.664, 3.320e-6
0.668, 3.614e-6
0.672, 3.885e-6
0.676, 3.979e-6
0.680, 4.403e-6
0.684, 4.721e-6
0.688, 4.980e-6
0.692, 5.462e-6
0.696, 5.639e-6
0.700, 5.910e-6
0.704, 6.545e-6
0.708, 7.051e-6
0.712, 7.381e-6
0.716, 8.005e-6
0.720, 8.535e-6
0.724, 9.006e-6
0.728, 9.476e-6
0.732, 1.011e-5
0.736, 1.089e-5
0.740, 1.154e-5
0.744, 1.268e-5
0.748, 1.431e-5
0.752, 1.645e-5
0.756, 1.867e-5
0.760, 2.090e-5
0.764, 2.150e-5
0.768, 2.066e-5
0.772, 1.965e-5
0.776, 1.895e-5
0.780, 1.836e-5
0.784, 1.787e-5
0.788, 1.755e-5
0.792, 1.730e-5
0.796, 1.725e-5
0.800, 1.705e-5
0.804, 1.679e-5
0.808, 1.665e-5
0.812, 1.674e-5
0.816, 1.629e-5
0.820, 1.641e-5
0.824, 1.610e-5
0.828, 1.617e-5
0.832, 1.617e-5
0.836, 1.596e-5
0.840, 1.597e-5
0.844, 1.589e-5
0.848, 1.585e-5
0.852, 1.574e-5
0.856, 1.572e-5
0.860, 1.557e-5
0.864, 1.549e-5
0.868, 1.535e-5
0.872, 1.534e-5
0.876, 1.506e-5
0.880, 1.500e-5
0.884, 1.454e-5
0.888, 1.442e-5
0.892, 1.427e-5
0.896, 1.403e-5
0.900, 1.381e-5
0.904, 1.356e-5
0.908, 1.334e-5
0.912, 1.303e-5
0.916, 1.277e-5
0.920, 1.245e-5
0.924, 1.231e-5
0.928, 1.222e-5
0.932, 1.183e-5
0.936, 1.163e-5
0.940, 1.141e-5
0.944, 1.132e-5
0.948, 1.102e-5
0.952, 1.075e-5
0.956, 1.050e-5
0.960, 1.051e-5
0.964, 1.025e-5
0.968, 1.012e-5
0.972, 1.002e-5
0.976, 9.924e-6
0.980, 9.735e-6
0.984, 9.465e-6
0.988, 9.618e-6
0.992, 9.394e-6
0.996, 9.241e-6
1.000, 9.335e-6
