July 14, 2025   10:33:30
Differential Pulse Voltammetry
File: e:\Data Source:  Experiment
Instrument Model:  CHI620E
Header: 
Note: 

Init E (V) = 0
Final E (V) = 1
Incr E (V) = 0.004
Amplitude (V) = 0.05
Pulse Width (sec) = 0.05
Sample Width (sec) = 0.0167
Pulse Period (sec) = 0.5
Quiet Time (sec) = 2
Sensitivity (A/V) = 0.01

Results:

Channel 1:
Ep = 0.776V
ip = 4.688e-5A
Ap = 7.704e-6VA

Potential/V, Current/A

0.004, 9.394e-6
0.008, 8.393e-6
0.012, 7.746e-6
0.016, 7.122e-6
0.020, 6.533e-6
0.024, 6.333e-6
0.028, 6.274e-6
0.032, 6.133e-6
0.036, 5.921e-6
0.040, 5.827e-6
0.044, 5.639e-6
0.048, 5.474e-6
0.052, 5.344e-6
0.056, 5.038e-6
0.060, 5.297e-6
0.064, 5.097e-6
0.068, 4.885e-6
0.072, 4.791e-6
0.076, 4.827e-6
0.080, 4.626e-6
0.084, 4.568e-6
0.088, 4.462e-6
0.092, 4.544e-6
0.096, 4.297e-6
0.100, 4.367e-6
0.104, 4.179e-6
0.108, 4.179e-6
0.112, 3.979e-6
0.116, 4.156e-6
0.120, 3.955e-6
0.124, 3.955e-6
0.128, 3.967e-6
0.132, 3.814e-6
0.136, 3.779e-6
0.140, 3.814e-6
0.144, 3.779e-6
0.148, 3.673e-6
0.152, 3.590e-6
0.156, 3.626e-6
0.160, 3.649e-6
0.164, 3.496e-6
0.168, 3.614e-6
0.172, 3.437e-6
0.176, 3.284e-6
0.180, 3.355e-6
0.184, 3.202e-6
0.188, 3.096e-6
0.192, 3.202e-6
0.196, 3.108e-6
0.200, 3.061e-6
0.204, 2.931e-6
0.208, 2.943e-6
0.212, 2.849e-6
0.216, 2.814e-6
0.220, 2.766e-6
0.224, 2.790e-6
0.228, 2.672e-6
0.232, 2.531e-6
0.236, 2.649e-6
0.240, 2.519e-6
0.244, 2.484e-6
0.248, 2.319e-6
0.252, 2.378e-6
0.256, 2.307e-6
0.260, 2.272e-6
0.264, 2.225e-6
0.268, 2.378e-6
0.272, 2.260e-6
0.276, 2.013e-6
0.280, 2.013e-6
0.284, 1.954e-6
0.288, 2.131e-6
0.292, 1.919e-6
0.296, 2.001e-6
0.300, 1.801e-6
0.304, 1.942e-6
0.308, 1.895e-6
0.312, 1.825e-6
0.316, 1.860e-6
0.320, 1.825e-6
0.324, 1.672e-6
0.328, 1.848e-6
0.332, 1.860e-6
0.336, 1.707e-6
0.340, 1.683e-6
0.344, 1.530e-6
0.348, 1.730e-6
0.352, 1.519e-6
0.356, 1.554e-6
0.360, 1.471e-6
0.364, 1.660e-6
0.368, 1.636e-6
0.372, 1.542e-6
0.376, 1.636e-6
0.380, 1.601e-6
0.384, 1.577e-6
0.388, 1.401e-6
0.392, 1.589e-6
0.396, 1.401e-6
0.400, 1.401e-6
0.404, 1.436e-6
0.408, 1.424e-6
0.412, 1.460e-6
0.416, 1.342e-6
0.420, 1.260e-6
0.424, 1.224e-6
0.428, 1.354e-6
0.432, 1.271e-6
0.436, 1.342e-6
0.440, 1.177e-6
0.444, 1.271e-6
0.448, 1.142e-6
0.452, 1.142e-6
0.456, 1.295e-6
0.460, 1.165e-6
0.464, 1.260e-6
0.468, 1.189e-6
0.472, 1.083e-6
0.476, 1.154e-6
0.480, 1.318e-6
0.484, 1.201e-6
0.488, 1.154e-6
0.492, 1.130e-6
0.496, 1.177e-6
0.500, 1.118e-6
0.504, 1.001e-6
0.508, 1.095e-6
0.512, 1.154e-6
0.516, 1.107e-6
0.520, 1.107e-6
0.524, 1.154e-6
0.528, 1.083e-6
0.532, 1.048e-6
0.536, 1.001e-6
0.540, 1.001e-6
0.544, 1.048e-6
0.548, 1.107e-6
0.552, 1.012e-6
0.556, 1.036e-6
0.560, 1.083e-6
0.564, 1.012e-6
0.568, 9.771e-7
0.572, 1.177e-6
0.576, 1.224e-6
0.580, 1.118e-6
0.584, 1.071e-6
0.588, 1.130e-6
0.592, 9.418e-7
0.596, 1.036e-6
0.600, 1.083e-6
0.604, 1.048e-6
0.608, 1.177e-6
0.612, 1.154e-6
0.616, 9.888e-7
0.620, 1.095e-6
0.624, 1.107e-6
0.628, 1.095e-6
0.632, 9.771e-7
0.636, 1.142e-6
0.640, 1.189e-6
0.644, 1.154e-6
0.648, 1.201e-6
0.652, 1.224e-6
0.656, 1.318e-6
0.660, 1.307e-6
0.664, 1.448e-6
0.668, 1.483e-6
0.672, 1.754e-6
0.676, 1.954e-6
0.680, 2.154e-6
0.684, 2.507e-6
0.688, 2.884e-6
0.692, 3.532e-6
0.696, 4.179e-6
0.700, 5.344e-6
0.704, 6.792e-6
0.708, 8.311e-6
0.712, 1.052e-5
0.716, 1.297e-5
0.720, 1.553e-5
0.724, 1.875e-5
0.728, 2.230e-5
0.732, 2.686e-5
0.736, 3.133e-5
0.740, 3.602e-5
0.744, 4.031e-5
0.748, 4.419e-5
0.752, 4.765e-5
0.756, 5.075e-5
0.760, 5.283e-5
0.764, 5.439e-5
0.768, 5.512e-5
0.772, 5.528e-5
0.776, 5.541e-5
0.780, 5.534e-5
0.784, 5.525e-5
0.788, 5.490e-5
0.792, 5.481e-5
0.796, 5.449e-5
0.800, 5.425e-5
0.804, 5.377e-5
0.808, 5.344e-5
0.812, 5.294e-5
0.816, 5.257e-5
0.820, 5.206e-5
0.824, 5.135e-5
0.828, 5.093e-5
0.832, 5.044e-5
0.836, 4.984e-5
0.840, 4.944e-5
0.844, 4.888e-5
0.848, 4.832e-5
0.852, 4.778e-5
0.856, 4.710e-5
0.860, 4.661e-5
0.864, 4.592e-5
0.868, 4.538e-5
0.872, 4.464e-5
0.876, 4.403e-5
0.880, 4.332e-5
0.884, 4.261e-5
0.888, 4.159e-5
0.892, 4.085e-5
0.896, 3.993e-5
0.900, 3.914e-5
0.904, 3.812e-5
0.908, 3.715e-5
0.912, 3.618e-5
0.916, 3.522e-5
0.920, 3.420e-5
0.924, 3.319e-5
0.928, 3.235e-5
0.932, 3.145e-5
0.936, 3.049e-5
0.940, 2.957e-5
0.944, 2.875e-5
0.948, 2.789e-5
0.952, 2.703e-5
0.956, 2.639e-5
0.960, 2.552e-5
0.964, 2.465e-5
0.968, 2.410e-5
0.972, 2.352e-5
0.976, 2.288e-5
0.980, 2.215e-5
0.984, 2.173e-5
0.988, 2.115e-5
0.992, 2.077e-5
0.996, 2.025e-5
1.000, 1.979e-5
