July 12, 2025   20:38:08
Differential Pulse Voltammetry
File: e:\Data Source:  Experiment
Instrument Model:  CHI620E
Header: 
Note: 

Init E (V) = 0
Final E (V) = 1
Incr E (V) = 0.004
Amplitude (V) = 0.05
Pulse Width (sec) = 0.05
Sample Width (sec) = 0.0167
Pulse Period (sec) = 0.5
Quiet Time (sec) = 2
Sensitivity (A/V) = 0.01

Results:

Channel 1:
Ep = 0.700V
ip = 1.606e-5A
Ap = 6.533e-7VA

Potential/V, Current/A

0.004, 7.040e-6
0.008, 6.840e-6
0.012, 6.239e-6
0.016, 5.839e-6
0.020, 5.356e-6
0.024, 5.321e-6
0.028, 5.027e-6
0.032, 4.932e-6
0.036, 4.721e-6
0.040, 4.685e-6
0.044, 4.520e-6
0.048, 4.603e-6
0.052, 4.450e-6
0.056, 4.379e-6
0.060, 4.603e-6
0.064, 4.591e-6
0.068, 4.414e-6
0.072, 4.497e-6
0.076, 4.473e-6
0.080, 4.532e-6
0.084, 4.473e-6
0.088, 4.391e-6
0.092, 4.485e-6
0.096, 4.497e-6
0.100, 4.391e-6
0.104, 4.356e-6
0.108, 4.332e-6
0.112, 4.520e-6
0.116, 4.520e-6
0.120, 4.450e-6
0.124, 4.485e-6
0.128, 4.462e-6
0.132, 4.497e-6
0.136, 4.414e-6
0.140, 4.391e-6
0.144, 4.544e-6
0.148, 4.497e-6
0.152, 4.450e-6
0.156, 4.403e-6
0.160, 4.556e-6
0.164, 4.344e-6
0.168, 4.462e-6
0.172, 4.438e-6
0.176, 4.497e-6
0.180, 4.367e-6
0.184, 4.356e-6
0.188, 4.356e-6
0.192, 4.273e-6
0.196, 4.226e-6
0.200, 4.203e-6
0.204, 4.191e-6
0.208, 4.191e-6
0.212, 4.073e-6
0.216, 3.885e-6
0.220, 3.849e-6
0.224, 3.920e-6
0.228, 3.743e-6
0.232, 3.755e-6
0.236, 3.767e-6
0.240, 3.720e-6
0.244, 3.473e-6
0.248, 3.402e-6
0.252, 3.532e-6
0.256, 3.237e-6
0.260, 3.226e-6
0.264, 3.402e-6
0.268, 3.261e-6
0.272, 2.990e-6
0.276, 3.167e-6
0.280, 3.096e-6
0.284, 2.943e-6
0.288, 2.790e-6
0.292, 2.884e-6
0.296, 2.814e-6
0.300, 2.849e-6
0.304, 2.660e-6
0.308, 2.672e-6
0.312, 2.625e-6
0.316, 2.602e-6
0.320, 2.578e-6
0.324, 2.319e-6
0.328, 2.284e-6
0.332, 2.390e-6
0.336, 2.225e-6
0.340, 2.237e-6
0.344, 2.213e-6
0.348, 2.142e-6
0.352, 2.201e-6
0.356, 2.154e-6
0.360, 2.178e-6
0.364, 2.131e-6
0.368, 2.095e-6
0.372, 2.190e-6
0.376, 2.025e-6
0.380, 1.942e-6
0.384, 1.978e-6
0.388, 1.825e-6
0.392, 1.978e-6
0.396, 2.013e-6
0.400, 1.754e-6
0.404, 1.895e-6
0.408, 1.778e-6
0.412, 1.836e-6
0.416, 1.683e-6
0.420, 1.919e-6
0.424, 1.789e-6
0.428, 1.754e-6
0.432, 1.695e-6
0.436, 1.683e-6
0.440, 1.401e-6
0.444, 1.742e-6
0.448, 1.672e-6
0.452, 1.589e-6
0.456, 1.436e-6
0.460, 1.601e-6
0.464, 1.460e-6
0.468, 1.436e-6
0.472, 1.542e-6
0.476, 1.554e-6
0.480, 1.377e-6
0.484, 1.566e-6
0.488, 1.377e-6
0.492, 1.460e-6
0.496, 1.519e-6
0.500, 1.389e-6
0.504, 1.354e-6
0.508, 1.318e-6
0.512, 1.448e-6
0.516, 1.318e-6
0.520, 1.224e-6
0.524, 1.471e-6
0.528, 1.436e-6
0.532, 1.330e-6
0.536, 1.318e-6
0.540, 1.342e-6
0.544, 1.295e-6
0.548, 1.389e-6
0.552, 1.307e-6
0.556, 1.271e-6
0.560, 1.377e-6
0.564, 1.413e-6
0.568, 1.366e-6
0.572, 1.354e-6
0.576, 1.495e-6
0.580, 1.377e-6
0.584, 1.554e-6
0.588, 1.660e-6
0.592, 1.566e-6
0.596, 1.648e-6
0.600, 1.672e-6
0.604, 1.825e-6
0.608, 2.060e-6
0.612, 2.260e-6
0.616, 2.684e-6
0.620, 2.896e-6
0.624, 3.590e-6
0.628, 4.273e-6
0.632, 5.333e-6
0.636, 7.040e-6
0.640, 9.370e-6
0.644, 1.258e-5
0.648, 1.714e-5
0.652, 2.252e-5
0.656, 2.910e-5
0.660, 3.654e-5
0.664, 4.445e-5
0.668, 5.207e-5
0.672, 5.897e-5
0.676, 6.470e-5
0.680, 6.985e-5
0.684, 7.369e-5
0.688, 7.642e-5
0.692, 7.847e-5
0.696, 7.984e-5
0.700, 8.034e-5
0.704, 8.018e-5
0.708, 7.930e-5
0.712, 7.844e-5
0.716, 7.758e-5
0.720, 7.658e-5
0.724, 7.632e-5
0.728, 7.593e-5
0.732, 7.625e-5
0.736, 7.682e-5
0.740, 7.775e-5
0.744, 7.919e-5
0.748, 8.111e-5
0.752, 8.360e-5
0.756, 8.625e-5
0.760, 8.911e-5
0.764, 9.246e-5
0.768, 9.547e-5
0.772, 9.899e-5
0.776, 1.024e-4
0.780, 1.061e-4
0.784, 1.094e-4
0.788, 1.128e-4
0.792, 1.159e-4
0.796, 1.189e-4
0.800, 1.217e-4
0.804, 1.244e-4
0.808, 1.267e-4
0.812, 1.288e-4
0.816, 1.305e-4
0.820, 1.320e-4
0.824, 1.326e-4
0.828, 1.329e-4
0.832, 1.327e-4
0.836, 1.316e-4
0.840, 1.296e-4
0.844, 1.269e-4
0.848, 1.231e-4
0.852, 1.186e-4
0.856, 1.136e-4
0.860, 1.084e-4
0.864, 1.032e-4
0.868, 9.792e-5
0.872, 9.313e-5
0.876, 8.869e-5
0.880, 8.430e-5
0.884, 8.037e-5
0.888, 7.653e-5
0.892, 7.305e-5
0.896, 6.963e-5
0.900, 6.632e-5
0.904, 6.355e-5
0.908, 6.033e-5
0.912, 5.742e-5
0.916, 5.487e-5
0.920, 5.209e-5
0.924, 4.962e-5
0.928, 4.718e-5
0.932, 4.482e-5
0.936, 4.253e-5
0.940, 4.057e-5
0.944, 3.846e-5
0.948, 3.658e-5
0.952, 3.481e-5
0.956, 3.323e-5
0.960, 3.180e-5
0.964, 3.032e-5
0.968, 2.912e-5
0.972, 2.797e-5
0.976, 2.689e-5
0.980, 2.570e-5
0.984, 2.492e-5
0.988, 2.392e-5
0.992, 2.314e-5
0.996, 2.243e-5
1.000, 2.159e-5
