July 12, 2025   20:29:28
Differential Pulse Voltammetry
File: e:\Data Source:  Experiment
Instrument Model:  CHI620E
Header: 
Note: 

Init E (V) = 0
Final E (V) = 1
Incr E (V) = 0.004
Amplitude (V) = 0.05
Pulse Width (sec) = 0.05
Sample Width (sec) = 0.0167
Pulse Period (sec) = 0.5
Quiet Time (sec) = 2
Sensitivity (A/V) = 0.01

Results:

Channel 1:

Potential/V, Current/A

0.004, 2.354e-7
0.008, 2.237e-7
0.012, 3.767e-7
0.016, 2.119e-7
0.020, 2.237e-7
0.024, 2.590e-7
0.028, 3.532e-7
0.032, 3.414e-7
0.036, 1.884e-7
0.040, 2.237e-7
0.044, 8.240e-8
0.048, 1.648e-7
0.052, 3.767e-7
0.056, 5.885e-8
0.060, 2.472e-7
0.064, 3.649e-7
0.068, 3.532e-7
0.072, 1.413e-7
0.076, 1.884e-7
0.080, 2.119e-7
0.084, 2.119e-7
0.088, 1.766e-7
0.092, 6.121e-7
0.096, 3.178e-7
0.100, 2.825e-7
0.104, 2.708e-7
0.108, 3.649e-7
0.112, 3.178e-7
0.116, 1.884e-7
0.120, 1.177e-7
0.124, 2.590e-7
0.128, 3.178e-7
0.132, 1.884e-7
0.136, 2.237e-7
0.140, 1.530e-7
0.144, 2.119e-7
0.148, 3.061e-7
0.152, 2.707e-7
0.156, 4.238e-7
0.160, 2.237e-7
0.164, 2.825e-7
0.168, 2.354e-7
0.172, 2.001e-7
0.176, 2.119e-7
0.180, 1.059e-7
0.184, 1.766e-7
0.188, 3.178e-7
0.192, 2.354e-7
0.196, 1.648e-7
0.200, 2.237e-7
0.204, 2.472e-7
0.208, 2.119e-7
0.212, 2.354e-7
0.216, 1.766e-7
0.220, 2.354e-7
0.224, 1.648e-7
0.228, 1.059e-7
0.232, 9.418e-8
0.236, 2.590e-7
0.240, 2.001e-7
0.244, 2.472e-7
0.248, 7.063e-8
0.252, 1.884e-7
0.256, 2.119e-7
0.260, 3.532e-8
0.264, 1.177e-8
0.268, 2.708e-7
0.272, 1.059e-7
0.276, 1.884e-7
0.280, 1.884e-7
0.284, 2.237e-7
0.288, 2.472e-7
0.292, 1.766e-7
0.296, 1.413e-7
0.300, 1.648e-7
0.304, 2.119e-7
0.308, 1.884e-7
0.312, 8.241e-8
0.316, 8.240e-8
0.320, 1.884e-7
0.324, 1.413e-7
0.328, 1.413e-7
0.332, 2.001e-7
0.336, 2.472e-7
0.340, 1.413e-7
0.344, 1.295e-7
0.348, 3.061e-7
0.352, 2.590e-7
0.356, 1.177e-7
0.360, 2.119e-7
0.364, 3.296e-7
0.368, 3.296e-7
0.372, 3.649e-7
0.376, 1.530e-7
0.380, 2.354e-7
0.384, 4.356e-7
0.388, 3.649e-7
0.392, 3.178e-7
0.396, 3.296e-7
0.400, 4.356e-7
0.404, 5.886e-7
0.408, 4.473e-7
0.412, 4.944e-7
0.416, 5.768e-7
0.420, 6.828e-7
0.424, 5.886e-7
0.428, 7.770e-7
0.432, 6.592e-7
0.436, 8.711e-7
0.440, 9.418e-7
0.444, 1.071e-6
0.448, 1.154e-6
0.452, 1.342e-6
0.456, 1.542e-6
0.460, 1.672e-6
0.464, 1.895e-6
0.468, 2.166e-6
0.472, 2.684e-6
0.476, 3.402e-6
0.480, 4.462e-6
0.484, 5.886e-6
0.488, 8.229e-6
0.492, 1.167e-5
0.496, 1.592e-5
0.500, 2.126e-5
0.504, 2.728e-5
0.508, 3.392e-5
0.512, 4.073e-5
0.516, 4.671e-5
0.520, 5.183e-5
0.524, 5.591e-5
0.528, 5.931e-5
0.532, 6.227e-5
0.536, 6.475e-5
0.540, 6.690e-5
0.544, 6.875e-5
0.548, 7.021e-5
0.552, 7.119e-5
0.556, 7.179e-5
0.560, 7.223e-5
0.564, 7.277e-5
0.568, 7.349e-5
0.572, 7.487e-5
0.576, 7.646e-5
0.580, 7.791e-5
0.584, 7.964e-5
0.588, 8.151e-5
0.592, 8.356e-5
0.596, 8.626e-5
0.600, 8.917e-5
0.604, 9.259e-5
0.608, 9.585e-5
0.612, 9.950e-5
0.616, 1.031e-4
0.620, 1.064e-4
0.624, 1.095e-4
0.628, 1.124e-4
0.632, 1.152e-4
0.636, 1.175e-4
0.640, 1.198e-4
0.644, 1.215e-4
0.648, 1.229e-4
0.652, 1.243e-4
0.656, 1.251e-4
0.660, 1.257e-4
0.664, 1.261e-4
0.668, 1.259e-4
0.672, 1.255e-4
0.676, 1.242e-4
0.680, 1.226e-4
0.684, 1.200e-4
0.688, 1.168e-4
0.692, 1.131e-4
0.696, 1.085e-4
0.700, 1.042e-4
0.704, 9.950e-5
0.708, 9.482e-5
0.712, 9.048e-5
0.716, 8.630e-5
0.720, 8.265e-5
0.724, 7.905e-5
0.728, 7.580e-5
0.732, 7.276e-5
0.736, 6.994e-5
0.740, 6.708e-5
0.744, 6.452e-5
0.748, 6.218e-5
0.752, 5.983e-5
0.756, 5.753e-5
0.760, 5.510e-5
0.764, 5.295e-5
0.768, 5.081e-5
0.772, 4.870e-5
0.776, 4.701e-5
0.780, 4.482e-5
0.784, 4.300e-5
0.788, 4.115e-5
0.792, 3.937e-5
0.796, 3.791e-5
0.800, 3.616e-5
0.804, 3.475e-5
0.808, 3.330e-5
0.812, 3.209e-5
0.816, 3.089e-5
0.820, 2.967e-5
0.824, 2.855e-5
0.828, 2.764e-5
0.832, 2.669e-5
0.836, 2.580e-5
0.840, 2.489e-5
0.844, 2.419e-5
0.848, 2.351e-5
0.852, 2.276e-5
0.856, 2.223e-5
0.860, 2.167e-5
0.864, 2.118e-5
0.868, 2.077e-5
0.872, 2.013e-5
0.876, 1.979e-5
0.880, 1.939e-5
0.884, 1.904e-5
0.888, 1.866e-5
0.892, 1.841e-5
0.896, 1.813e-5
0.900, 1.775e-5
0.904, 1.769e-5
0.908, 1.743e-5
0.912, 1.715e-5
0.916, 1.696e-5
0.920, 1.695e-5
0.924, 1.675e-5
0.928, 1.663e-5
0.932, 1.639e-5
0.936, 1.652e-5
0.940, 1.637e-5
0.944, 1.626e-5
0.948, 1.629e-5
0.952, 1.620e-5
0.956, 1.617e-5
0.960, 1.609e-5
0.964, 1.617e-5
0.968, 1.615e-5
0.972, 1.627e-5
0.976, 1.614e-5
0.980, 1.610e-5
0.984, 1.623e-5
0.988, 1.625e-5
0.992, 1.621e-5
0.996, 1.608e-5
1.000, 1.630e-5
