July 24, 2025   19:27:10
Differential Pulse Voltammetry
File: e:\Data Source:  Experiment
Instrument Model:  CHI620E
Header: 
Note: 

Init E (V) = 0
Final E (V) = 1
Incr E (V) = 0.004
Amplitude (V) = 0.05
Pulse Width (sec) = 0.05
Sample Width (sec) = 0.0167
Pulse Period (sec) = 0.5
Quiet Time (sec) = 2
Sensitivity (A/V) = 0.01

Results:

Channel 1:
Ep = 0.736V
ip = 8.351e-6A
Ap = 8.218e-7VA

Potential/V, Current/A

0.004, 5.191e-6
0.008, 4.815e-6
0.012, 4.944e-6
0.016, 4.909e-6
0.020, 4.214e-6
0.024, 4.367e-6
0.028, 4.273e-6
0.032, 3.920e-6
0.036, 3.991e-6
0.040, 3.979e-6
0.044, 3.649e-6
0.048, 3.944e-6
0.052, 3.532e-6
0.056, 3.614e-6
0.060, 3.708e-6
0.064, 3.485e-6
0.068, 3.343e-6
0.072, 3.414e-6
0.076, 3.261e-6
0.080, 3.579e-6
0.084, 3.084e-6
0.088, 3.261e-6
0.092, 3.296e-6
0.096, 3.202e-6
0.100, 3.190e-6
0.104, 3.084e-6
0.108, 3.414e-6
0.112, 2.955e-6
0.116, 3.273e-6
0.120, 2.613e-6
0.124, 3.108e-6
0.128, 2.766e-6
0.132, 3.014e-6
0.136, 2.602e-6
0.140, 2.908e-6
0.144, 2.872e-6
0.148, 2.637e-6
0.152, 2.731e-6
0.156, 2.531e-6
0.160, 2.943e-6
0.164, 2.507e-6
0.168, 2.814e-6
0.172, 2.566e-6
0.176, 2.660e-6
0.180, 2.319e-6
0.184, 2.378e-6
0.188, 2.449e-6
0.192, 2.507e-6
0.196, 2.331e-6
0.200, 2.366e-6
0.204, 2.472e-6
0.208, 2.190e-6
0.212, 2.354e-6
0.216, 2.095e-6
0.220, 2.213e-6
0.224, 1.942e-6
0.228, 2.248e-6
0.232, 1.860e-6
0.236, 2.190e-6
0.240, 1.672e-6
0.244, 2.060e-6
0.248, 1.601e-6
0.252, 2.001e-6
0.256, 1.683e-6
0.260, 1.789e-6
0.264, 1.577e-6
0.268, 1.836e-6
0.272, 1.636e-6
0.276, 1.707e-6
0.280, 1.672e-6
0.284, 1.542e-6
0.288, 1.813e-6
0.292, 1.683e-6
0.296, 1.695e-6
0.300, 1.707e-6
0.304, 1.566e-6
0.308, 1.366e-6
0.312, 1.495e-6
0.316, 1.436e-6
0.320, 1.530e-6
0.324, 1.201e-6
0.328, 1.495e-6
0.332, 1.460e-6
0.336, 1.483e-6
0.340, 1.507e-6
0.344, 1.554e-6
0.348, 1.236e-6
0.352, 1.672e-6
0.356, 1.377e-6
0.360, 1.495e-6
0.364, 1.271e-6
0.368, 1.707e-6
0.372, 1.377e-6
0.376, 1.342e-6
0.380, 1.307e-6
0.384, 1.448e-6
0.388, 1.625e-6
0.392, 1.224e-6
0.396, 1.471e-6
0.400, 1.401e-6
0.404, 1.377e-6
0.408, 1.224e-6
0.412, 1.377e-6
0.416, 1.283e-6
0.420, 1.213e-6
0.424, 1.448e-6
0.428, 1.295e-6
0.432, 1.283e-6
0.436, 1.295e-6
0.440, 1.118e-6
0.444, 1.530e-6
0.448, 1.189e-6
0.452, 1.424e-6
0.456, 1.059e-6
0.460, 1.495e-6
0.464, 1.107e-6
0.468, 1.471e-6
0.472, 1.154e-6
0.476, 1.330e-6
0.480, 1.295e-6
0.484, 9.064e-7
0.488, 1.189e-6
0.492, 1.248e-6
0.496, 1.083e-6
0.500, 1.283e-6
0.504, 1.130e-6
0.508, 1.519e-6
0.512, 1.107e-6
0.516, 1.295e-6
0.520, 1.189e-6
0.524, 1.307e-6
0.528, 1.519e-6
0.532, 1.213e-6
0.536, 1.165e-6
0.540, 1.260e-6
0.544, 1.307e-6
0.548, 1.413e-6
0.552, 1.165e-6
0.556, 1.307e-6
0.560, 1.154e-6
0.564, 1.283e-6
0.568, 1.083e-6
0.572, 1.577e-6
0.576, 1.024e-6
0.580, 1.377e-6
0.584, 1.248e-6
0.588, 1.601e-6
0.592, 1.177e-6
0.596, 1.683e-6
0.600, 1.260e-6
0.604, 1.836e-6
0.608, 1.342e-6
0.612, 1.931e-6
0.616, 1.460e-6
0.620, 1.825e-6
0.624, 2.001e-6
0.628, 1.895e-6
0.632, 2.296e-6
0.636, 2.025e-6
0.640, 2.401e-6
0.644, 2.755e-6
0.648, 2.519e-6
0.652, 3.343e-6
0.656, 3.308e-6
0.660, 3.555e-6
0.664, 4.285e-6
0.668, 4.803e-6
0.672, 5.321e-6
0.676, 6.333e-6
0.680, 6.945e-6
0.684, 8.123e-6
0.688, 8.794e-6
0.692, 1.010e-5
0.696, 1.072e-5
0.700, 1.202e-5
0.704, 1.255e-5
0.708, 1.298e-5
0.712, 1.374e-5
0.716, 1.382e-5
0.720, 1.462e-5
0.724, 1.447e-5
0.728, 1.469e-5
0.732, 1.456e-5
0.736, 1.484e-5
0.740, 1.475e-5
0.744, 1.477e-5
0.748, 1.435e-5
0.752, 1.419e-5
0.756, 1.395e-5
0.760, 1.354e-5
0.764, 1.353e-5
0.768, 1.310e-5
0.772, 1.287e-5
0.776, 1.298e-5
0.780, 1.265e-5
0.784, 1.222e-5
0.788, 1.214e-5
0.792, 1.175e-5
0.796, 1.157e-5
0.800, 1.152e-5
0.804, 1.096e-5
0.808, 1.111e-5
0.812, 1.104e-5
0.816, 1.091e-5
0.820, 1.078e-5
0.824, 1.055e-5
0.828, 1.045e-5
0.832, 1.031e-5
0.836, 1.034e-5
0.840, 1.018e-5
0.844, 1.019e-5
0.848, 1.010e-5
0.852, 1.018e-5
0.856, 9.947e-6
0.860, 1.034e-5
0.864, 1.003e-5
0.868, 9.983e-6
0.872, 9.900e-6
0.876, 9.936e-6
0.880, 9.877e-6
0.884, 9.818e-6
0.888, 9.747e-6
0.892, 9.535e-6
0.896, 9.677e-6
0.900, 9.594e-6
0.904, 9.547e-6
0.908, 9.535e-6
0.912, 9.453e-6
0.916, 9.300e-6
0.920, 9.300e-6
0.924, 9.206e-6
0.928, 9.206e-6
0.932, 8.652e-6
0.936, 8.911e-6
0.940, 8.699e-6
0.944, 9.029e-6
0.948, 8.782e-6
0.952, 8.523e-6
0.956, 8.652e-6
0.960, 8.193e-6
0.964, 8.605e-6
0.968, 8.264e-6
0.972, 8.193e-6
0.976, 8.005e-6
0.980, 7.946e-6
0.984, 7.616e-6
0.988, 7.970e-6
0.992, 7.687e-6
0.996, 7.664e-6
1.000, 7.581e-6
