July 14, 2025   16:55:07
Differential Pulse Voltammetry
File: e:\Data Source:  Experiment
Instrument Model:  CHI620E
Header: 
Note: 

Init E (V) = 0
Final E (V) = 1
Incr E (V) = 0.004
Amplitude (V) = 0.05
Pulse Width (sec) = 0.05
Sample Width (sec) = 0.0167
Pulse Period (sec) = 0.5
Quiet Time (sec) = 2
Sensitivity (A/V) = 0.01

Results:

Channel 1:
Ep = 0.724V
ip = 1.462e-5A
Ap = 4.195e-7VA

Potential/V, Current/A

0.004, 1.100e-5
0.008, 1.030e-5
0.012, 9.665e-6
0.016, 9.547e-6
0.020, 9.323e-6
0.024, 9.147e-6
0.028, 8.594e-6
0.032, 8.099e-6
0.036, 7.769e-6
0.040, 7.558e-6
0.044, 7.263e-6
0.048, 7.157e-6
0.052, 7.016e-6
0.056, 6.851e-6
0.060, 6.781e-6
0.064, 6.722e-6
0.068, 6.651e-6
0.072, 6.604e-6
0.076, 6.722e-6
0.080, 6.592e-6
0.084, 6.710e-6
0.088, 6.816e-6
0.092, 6.887e-6
0.096, 7.016e-6
0.100, 6.910e-6
0.104, 7.028e-6
0.108, 7.051e-6
0.112, 7.334e-6
0.116, 7.216e-6
0.120, 7.204e-6
0.124, 7.287e-6
0.128, 7.369e-6
0.132, 7.416e-6
0.136, 7.393e-6
0.140, 7.475e-6
0.144, 7.534e-6
0.148, 7.487e-6
0.152, 7.416e-6
0.156, 7.405e-6
0.160, 7.511e-6
0.164, 7.440e-6
0.168, 7.287e-6
0.172, 7.310e-6
0.176, 7.428e-6
0.180, 7.369e-6
0.184, 7.028e-6
0.188, 7.181e-6
0.192, 7.122e-6
0.196, 7.051e-6
0.200, 6.887e-6
0.204, 6.804e-6
0.208, 6.698e-6
0.212, 6.616e-6
0.216, 6.581e-6
0.220, 6.439e-6
0.224, 6.286e-6
0.228, 6.227e-6
0.232, 6.286e-6
0.236, 5.968e-6
0.240, 6.063e-6
0.244, 5.851e-6
0.248, 5.804e-6
0.252, 5.698e-6
0.256, 5.592e-6
0.260, 5.521e-6
0.264, 5.474e-6
0.268, 5.297e-6
0.272, 5.262e-6
0.276, 5.168e-6
0.280, 5.050e-6
0.284, 5.168e-6
0.288, 5.003e-6
0.292, 4.874e-6
0.296, 4.791e-6
0.300, 4.603e-6
0.304, 4.697e-6
0.308, 4.615e-6
0.312, 4.379e-6
0.316, 4.497e-6
0.320, 4.367e-6
0.324, 4.167e-6
0.328, 4.273e-6
0.332, 4.226e-6
0.336, 4.179e-6
0.340, 3.955e-6
0.344, 4.073e-6
0.348, 3.920e-6
0.352, 3.873e-6
0.356, 3.955e-6
0.360, 3.791e-6
0.364, 3.838e-6
0.368, 3.838e-6
0.372, 3.743e-6
0.376, 3.779e-6
0.380, 3.885e-6
0.384, 3.708e-6
0.388, 3.567e-6
0.392, 3.555e-6
0.396, 3.520e-6
0.400, 3.567e-6
0.404, 3.379e-6
0.408, 3.532e-6
0.412, 3.732e-6
0.416, 3.473e-6
0.420, 3.343e-6
0.424, 3.437e-6
0.428, 3.437e-6
0.432, 3.308e-6
0.436, 3.331e-6
0.440, 3.249e-6
0.444, 3.379e-6
0.448, 3.284e-6
0.452, 3.190e-6
0.456, 3.202e-6
0.460, 3.273e-6
0.464, 3.308e-6
0.468, 3.202e-6
0.472, 3.202e-6
0.476, 3.108e-6
0.480, 3.155e-6
0.484, 3.072e-6
0.488, 3.237e-6
0.492, 3.131e-6
0.496, 2.990e-6
0.500, 3.108e-6
0.504, 2.943e-6
0.508, 3.096e-6
0.512, 3.049e-6
0.516, 3.002e-6
0.520, 3.096e-6
0.524, 3.037e-6
0.528, 2.978e-6
0.532, 3.084e-6
0.536, 3.096e-6
0.540, 2.978e-6
0.544, 3.131e-6
0.548, 2.884e-6
0.552, 3.014e-6
0.556, 3.037e-6
0.560, 3.002e-6
0.564, 3.014e-6
0.568, 3.061e-6
0.572, 3.037e-6
0.576, 3.178e-6
0.580, 3.167e-6
0.584, 3.226e-6
0.588, 3.426e-6
0.592, 3.426e-6
0.596, 3.579e-6
0.600, 3.543e-6
0.604, 3.673e-6
0.608, 3.967e-6
0.612, 4.002e-6
0.616, 4.156e-6
0.620, 4.509e-6
0.624, 4.862e-6
0.628, 5.038e-6
0.632, 5.674e-6
0.636, 6.169e-6
0.640, 6.887e-6
0.644, 7.840e-6
0.648, 8.911e-6
0.652, 1.049e-5
0.656, 1.245e-5
0.660, 1.466e-5
0.664, 1.739e-5
0.668, 2.095e-5
0.672, 2.506e-5
0.676, 2.999e-5
0.680, 3.587e-5
0.684, 4.291e-5
0.688, 5.071e-5
0.692, 5.875e-5
0.696, 6.705e-5
0.700, 7.474e-5
0.704, 8.171e-5
0.708, 8.807e-5
0.712, 9.387e-5
0.716, 9.805e-5
0.720, 1.006e-4
0.724, 1.016e-4
0.728, 1.012e-4
0.732, 1.005e-4
0.736, 9.945e-5
0.740, 9.859e-5
0.744, 9.805e-5
0.748, 9.781e-5
0.752, 9.837e-5
0.756, 9.928e-5
0.760, 1.007e-4
0.764, 1.029e-4
0.768, 1.050e-4
0.772, 1.075e-4
0.776, 1.104e-4
0.780, 1.133e-4
0.784, 1.162e-4
0.788, 1.190e-4
0.792, 1.217e-4
0.796, 1.244e-4
0.800, 1.266e-4
0.804, 1.285e-4
0.808, 1.299e-4
0.812, 1.310e-4
0.816, 1.315e-4
0.820, 1.316e-4
0.824, 1.312e-4
0.828, 1.307e-4
0.832, 1.299e-4
0.836, 1.285e-4
0.840, 1.272e-4
0.844, 1.257e-4
0.848, 1.236e-4
0.852, 1.216e-4
0.856, 1.194e-4
0.860, 1.171e-4
0.864, 1.146e-4
0.868, 1.119e-4
0.872, 1.094e-4
0.876, 1.068e-4
0.880, 1.042e-4
0.884, 1.016e-4
0.888, 9.903e-5
0.892, 9.644e-5
0.896, 9.394e-5
0.900, 9.126e-5
0.904, 8.871e-5
0.908, 8.615e-5
0.912, 8.336e-5
0.916, 8.046e-5
0.920, 7.769e-5
0.924, 7.469e-5
0.928, 7.184e-5
0.932, 6.870e-5
0.936, 6.566e-5
0.940, 6.271e-5
0.944, 5.998e-5
0.948, 5.711e-5
0.952, 5.423e-5
0.956, 5.163e-5
0.960, 4.917e-5
0.964, 4.664e-5
0.968, 4.438e-5
0.972, 4.231e-5
0.976, 4.019e-5
0.980, 3.828e-5
0.984, 3.645e-5
0.988, 3.494e-5
0.992, 3.324e-5
0.996, 3.175e-5
1.000, 3.030e-5
