July 21, 2025   17:18:41
Differential Pulse Voltammetry
File: e:\Data Source:  Experiment
Instrument Model:  CHI620E
Header: 
Note: 

Init E (V) = 0
Final E (V) = 1
Incr E (V) = 0.004
Amplitude (V) = 0.05
Pulse Width (sec) = 0.05
Sample Width (sec) = 0.0167
Pulse Period (sec) = 0.5
Quiet Time (sec) = 2
Sensitivity (A/V) = 0.01

Results:

Channel 1:
Ep = 0.676V
ip = 8.311e-5A
Ap = 3.773e-6VA

Potential/V, Current/A

0.004, 1.103e-5
0.008, 1.005e-5
0.012, 9.547e-6
0.016, 9.418e-6
0.020, 9.147e-6
0.024, 8.464e-6
0.028, 7.993e-6
0.032, 7.664e-6
0.036, 7.263e-6
0.040, 7.181e-6
0.044, 7.028e-6
0.048, 6.722e-6
0.052, 6.569e-6
0.056, 6.404e-6
0.060, 6.322e-6
0.064, 6.380e-6
0.068, 6.227e-6
0.072, 6.133e-6
0.076, 6.286e-6
0.080, 6.404e-6
0.084, 6.263e-6
0.088, 6.380e-6
0.092, 6.592e-6
0.096, 6.416e-6
0.100, 6.392e-6
0.104, 6.592e-6
0.108, 6.769e-6
0.112, 6.722e-6
0.116, 6.722e-6
0.120, 6.945e-6
0.124, 7.087e-6
0.128, 7.275e-6
0.132, 7.299e-6
0.136, 7.487e-6
0.140, 7.511e-6
0.144, 7.569e-6
0.148, 7.758e-6
0.152, 7.734e-6
0.156, 7.852e-6
0.160, 8.111e-6
0.164, 8.158e-6
0.168, 8.158e-6
0.172, 8.264e-6
0.176, 8.382e-6
0.180, 8.570e-6
0.184, 8.464e-6
0.188, 8.747e-6
0.192, 8.558e-6
0.196, 8.676e-6
0.200, 8.888e-6
0.204, 8.853e-6
0.208, 8.770e-6
0.212, 8.817e-6
0.216, 8.747e-6
0.220, 8.758e-6
0.224, 8.876e-6
0.228, 8.876e-6
0.232, 8.829e-6
0.236, 8.747e-6
0.240, 8.676e-6
0.244, 8.723e-6
0.248, 8.582e-6
0.252, 8.688e-6
0.256, 8.582e-6
0.260, 8.582e-6
0.264, 8.664e-6
0.268, 8.440e-6
0.272, 8.405e-6
0.276, 8.358e-6
0.280, 8.276e-6
0.284, 8.299e-6
0.288, 8.299e-6
0.292, 8.229e-6
0.296, 8.205e-6
0.300, 8.099e-6
0.304, 8.040e-6
0.308, 8.076e-6
0.312, 7.817e-6
0.316, 7.899e-6
0.320, 7.911e-6
0.324, 7.769e-6
0.328, 7.640e-6
0.332, 7.840e-6
0.336, 7.652e-6
0.340, 7.628e-6
0.344, 7.511e-6
0.348, 7.687e-6
0.352, 7.640e-6
0.356, 7.534e-6
0.360, 7.546e-6
0.364, 7.463e-6
0.368, 7.675e-6
0.372, 7.487e-6
0.376, 7.416e-6
0.380, 7.463e-6
0.384, 7.499e-6
0.388, 7.334e-6
0.392, 7.322e-6
0.396, 7.334e-6
0.400, 7.310e-6
0.404, 7.475e-6
0.408, 7.263e-6
0.412, 7.299e-6
0.416, 7.181e-6
0.420, 7.216e-6
0.424, 7.287e-6
0.428, 7.169e-6
0.432, 7.240e-6
0.436, 7.146e-6
0.440, 6.981e-6
0.444, 7.169e-6
0.448, 6.863e-6
0.452, 6.934e-6
0.456, 6.945e-6
0.460, 6.934e-6
0.464, 6.934e-6
0.468, 6.887e-6
0.472, 6.769e-6
0.476, 6.792e-6
0.480, 6.769e-6
0.484, 6.781e-6
0.488, 6.675e-6
0.492, 6.628e-6
0.496, 6.557e-6
0.500, 6.533e-6
0.504, 6.463e-6
0.508, 6.522e-6
0.512, 6.498e-6
0.516, 6.404e-6
0.520, 6.298e-6
0.524, 6.286e-6
0.528, 6.274e-6
0.532, 6.322e-6
0.536, 6.157e-6
0.540, 6.192e-6
0.544, 6.145e-6
0.548, 6.086e-6
0.552, 6.310e-6
0.556, 6.251e-6
0.560, 6.274e-6
0.564, 6.392e-6
0.568, 6.333e-6
0.572, 6.663e-6
0.576, 6.993e-6
0.580, 7.075e-6
0.584, 7.522e-6
0.588, 7.958e-6
0.592, 8.382e-6
0.596, 8.970e-6
0.600, 9.700e-6
0.604, 1.078e-5
0.608, 1.208e-5
0.612, 1.334e-5
0.616, 1.520e-5
0.620, 1.736e-5
0.624, 2.027e-5
0.628, 2.359e-5
0.632, 2.791e-5
0.636, 3.351e-5
0.640, 4.063e-5
0.644, 4.920e-5
0.648, 5.999e-5
0.652, 7.276e-5
0.656, 8.815e-5
0.660, 1.043e-4
0.664, 1.197e-4
0.668, 1.324e-4
0.672, 1.413e-4
0.676, 1.457e-4
0.680, 1.456e-4
0.684, 1.415e-4
0.688, 1.355e-4
0.692, 1.287e-4
0.696, 1.222e-4
0.700, 1.169e-4
0.704, 1.116e-4
0.708, 1.071e-4
0.712, 1.032e-4
0.716, 9.983e-5
0.720, 9.705e-5
0.724, 9.495e-5
0.728, 9.314e-5
0.732, 9.204e-5
0.736, 9.124e-5
0.740, 9.086e-5
0.744, 9.101e-5
0.748, 9.157e-5
0.752, 9.230e-5
0.756, 9.347e-5
0.760, 9.463e-5
0.764, 9.629e-5
0.768, 9.818e-5
0.772, 1.001e-4
0.776, 1.022e-4
0.780, 1.046e-4
0.784, 1.067e-4
0.788, 1.089e-4
0.792, 1.110e-4
0.796, 1.130e-4
0.800, 1.149e-4
0.804, 1.166e-4
0.808, 1.180e-4
0.812, 1.193e-4
0.816, 1.203e-4
0.820, 1.210e-4
0.824, 1.215e-4
0.828, 1.218e-4
0.832, 1.218e-4
0.836, 1.216e-4
0.840, 1.212e-4
0.844, 1.207e-4
0.848, 1.199e-4
0.852, 1.190e-4
0.856, 1.178e-4
0.860, 1.164e-4
0.864, 1.150e-4
0.868, 1.132e-4
0.872, 1.113e-4
0.876, 1.091e-4
0.880, 1.068e-4
0.884, 1.042e-4
0.888, 1.013e-4
0.892, 9.817e-5
0.896, 9.480e-5
0.900, 9.104e-5
0.904, 8.734e-5
0.908, 8.377e-5
0.912, 8.024e-5
0.916, 7.715e-5
0.920, 7.410e-5
0.924, 7.134e-5
0.928, 6.883e-5
0.932, 6.651e-5
0.936, 6.433e-5
0.940, 6.199e-5
0.944, 5.990e-5
0.948, 5.791e-5
0.952, 5.561e-5
0.956, 5.360e-5
0.960, 5.163e-5
0.964, 4.945e-5
0.968, 4.739e-5
0.972, 4.543e-5
0.976, 4.329e-5
0.980, 4.137e-5
0.984, 3.933e-5
0.988, 3.752e-5
0.992, 3.557e-5
0.996, 3.377e-5
1.000, 3.203e-5
