July 23, 2025   15:25:27
Differential Pulse Voltammetry
File: e:\Data Source:  Experiment
Instrument Model:  CHI620E
Header: 
Note: 

Init E (V) = 0
Final E (V) = 1
Incr E (V) = 0.004
Amplitude (V) = 0.05
Pulse Width (sec) = 0.05
Sample Width (sec) = 0.0167
Pulse Period (sec) = 0.5
Quiet Time (sec) = 2
Sensitivity (A/V) = 0.01

Results:

Channel 1:
Ep = 0.568V
ip = 1.134e-5A
Ap = 1.598e-6VA

Potential/V, Current/A

0.004, 9.488e-6
0.008, 8.652e-6
0.012, 7.981e-6
0.016, 7.452e-6
0.020, 6.934e-6
0.024, 6.628e-6
0.028, 6.369e-6
0.032, 6.157e-6
0.036, 5.733e-6
0.040, 5.509e-6
0.044, 5.486e-6
0.048, 5.368e-6
0.052, 5.180e-6
0.056, 4.862e-6
0.060, 4.909e-6
0.064, 4.721e-6
0.068, 4.732e-6
0.072, 4.520e-6
0.076, 4.497e-6
0.080, 4.344e-6
0.084, 4.156e-6
0.088, 4.108e-6
0.092, 4.014e-6
0.096, 3.908e-6
0.100, 3.861e-6
0.104, 3.791e-6
0.108, 3.826e-6
0.112, 3.732e-6
0.116, 3.579e-6
0.120, 3.520e-6
0.124, 3.508e-6
0.128, 3.343e-6
0.132, 3.273e-6
0.136, 3.226e-6
0.140, 3.426e-6
0.144, 3.131e-6
0.148, 3.072e-6
0.152, 3.025e-6
0.156, 3.214e-6
0.160, 3.155e-6
0.164, 3.096e-6
0.168, 3.049e-6
0.172, 3.108e-6
0.176, 3.002e-6
0.180, 3.014e-6
0.184, 2.908e-6
0.188, 2.943e-6
0.192, 3.037e-6
0.196, 2.861e-6
0.200, 2.931e-6
0.204, 2.825e-6
0.208, 2.861e-6
0.212, 2.919e-6
0.216, 2.637e-6
0.220, 2.802e-6
0.224, 2.825e-6
0.228, 2.802e-6
0.232, 2.731e-6
0.236, 2.649e-6
0.240, 2.743e-6
0.244, 2.790e-6
0.248, 2.602e-6
0.252, 2.731e-6
0.256, 2.660e-6
0.260, 2.566e-6
0.264, 2.708e-6
0.268, 2.672e-6
0.272, 2.555e-6
0.276, 2.719e-6
0.280, 2.672e-6
0.284, 2.637e-6
0.288, 2.637e-6
0.292, 2.684e-6
0.296, 2.555e-6
0.300, 2.613e-6
0.304, 2.672e-6
0.308, 2.649e-6
0.312, 2.472e-6
0.316, 2.602e-6
0.320, 2.519e-6
0.324, 2.602e-6
0.328, 2.531e-6
0.332, 2.519e-6
0.336, 2.472e-6
0.340, 2.566e-6
0.344, 2.566e-6
0.348, 2.613e-6
0.352, 2.543e-6
0.356, 2.531e-6
0.360, 2.566e-6
0.364, 2.531e-6
0.368, 2.449e-6
0.372, 2.519e-6
0.376, 2.460e-6
0.380, 2.555e-6
0.384, 2.696e-6
0.388, 2.672e-6
0.392, 2.649e-6
0.396, 2.672e-6
0.400, 2.578e-6
0.404, 2.672e-6
0.408, 2.731e-6
0.412, 2.731e-6
0.416, 2.731e-6
0.420, 2.825e-6
0.424, 2.896e-6
0.428, 2.872e-6
0.432, 3.072e-6
0.436, 3.155e-6
0.440, 3.308e-6
0.444, 3.496e-6
0.448, 3.638e-6
0.452, 3.920e-6
0.456, 4.250e-6
0.460, 4.509e-6
0.464, 5.156e-6
0.468, 5.533e-6
0.472, 6.310e-6
0.476, 7.004e-6
0.480, 7.781e-6
0.484, 8.276e-6
0.488, 8.735e-6
0.492, 9.206e-6
0.496, 9.606e-6
0.500, 9.900e-6
0.504, 1.024e-5
0.508, 1.078e-5
0.512, 1.110e-5
0.516, 1.144e-5
0.520, 1.197e-5
0.524, 1.225e-5
0.528, 1.248e-5
0.532, 1.267e-5
0.536, 1.301e-5
0.540, 1.321e-5
0.544, 1.360e-5
0.548, 1.410e-5
0.552, 1.481e-5
0.556, 1.546e-5
0.560, 1.595e-5
0.564, 1.605e-5
0.568, 1.622e-5
0.572, 1.574e-5
0.576, 1.522e-5
0.580, 1.466e-5
0.584, 1.416e-5
0.588, 1.362e-5
0.592, 1.323e-5
0.596, 1.296e-5
0.600, 1.250e-5
0.604, 1.240e-5
0.608, 1.204e-5
0.612, 1.176e-5
0.616, 1.155e-5
0.620, 1.134e-5
0.624, 1.137e-5
0.628, 1.111e-5
0.632, 1.084e-5
0.636, 1.079e-5
0.640, 1.068e-5
0.644, 1.039e-5
0.648, 1.034e-5
0.652, 1.034e-5
0.656, 1.016e-5
0.660, 1.001e-5
0.664, 9.912e-6
0.668, 9.818e-6
0.672, 9.735e-6
0.676, 9.582e-6
0.680, 9.618e-6
0.684, 9.370e-6
0.688, 9.382e-6
0.692, 9.300e-6
0.696, 9.170e-6
0.700, 9.076e-6
0.704, 9.076e-6
0.708, 8.900e-6
0.712, 8.758e-6
0.716, 8.864e-6
0.720, 8.676e-6
0.724, 8.629e-6
0.728, 8.452e-6
0.732, 8.464e-6
0.736, 8.335e-6
0.740, 8.299e-6
0.744, 8.134e-6
0.748, 8.276e-6
0.752, 8.052e-6
0.756, 8.028e-6
0.760, 7.852e-6
0.764, 7.770e-6
0.768, 7.722e-6
0.772, 7.593e-6
0.776, 7.605e-6
0.780, 7.605e-6
0.784, 7.452e-6
0.788, 7.558e-6
0.792, 7.393e-6
0.796, 7.357e-6
0.800, 7.369e-6
0.804, 7.275e-6
0.808, 7.063e-6
0.812, 7.110e-6
0.816, 7.157e-6
0.820, 7.134e-6
0.824, 6.840e-6
0.828, 6.922e-6
0.832, 6.887e-6
0.836, 6.934e-6
0.840, 6.875e-6
0.844, 6.734e-6
0.848, 6.840e-6
0.852, 6.710e-6
0.856, 6.651e-6
0.860, 6.828e-6
0.864, 6.769e-6
0.868, 6.698e-6
0.872, 6.875e-6
0.876, 6.851e-6
0.880, 6.910e-6
0.884, 6.769e-6
0.888, 6.816e-6
0.892, 6.910e-6
0.896, 7.016e-6
0.900, 6.957e-6
0.904, 6.981e-6
0.908, 6.945e-6
0.912, 6.969e-6
0.916, 6.957e-6
0.920, 6.934e-6
0.924, 7.122e-6
0.928, 7.098e-6
0.932, 7.016e-6
0.936, 7.181e-6
0.940, 7.075e-6
0.944, 7.063e-6
0.948, 7.157e-6
0.952, 7.098e-6
0.956, 7.252e-6
0.960, 7.193e-6
0.964, 7.134e-6
0.968, 7.169e-6
0.972, 7.275e-6
0.976, 7.334e-6
0.980, 7.310e-6
0.984, 7.275e-6
0.988, 7.569e-6
0.992, 7.381e-6
0.996, 7.499e-6
1.000, 7.534e-6
