July 23, 2025   15:18:57
Differential Pulse Voltammetry
File: e:\Data Source:  Experiment
Instrument Model:  CHI620E
Header: 
Note: 

Init E (V) = 0
Final E (V) = 1
Incr E (V) = 0.004
Amplitude (V) = 0.05
Pulse Width (sec) = 0.05
Sample Width (sec) = 0.0167
Pulse Period (sec) = 0.5
Quiet Time (sec) = 2
Sensitivity (A/V) = 0.01

Results:

Channel 1:
Ep = 0.568V
ip = 1.128e-5A
Ap = 1.373e-6VA

Potential/V, Current/A

0.004, 8.005e-6
0.008, 7.405e-6
0.012, 7.063e-6
0.016, 6.545e-6
0.020, 6.204e-6
0.024, 5.874e-6
0.028, 5.639e-6
0.032, 5.368e-6
0.036, 5.097e-6
0.040, 4.862e-6
0.044, 4.603e-6
0.048, 4.438e-6
0.052, 4.344e-6
0.056, 4.108e-6
0.060, 3.991e-6
0.064, 3.838e-6
0.068, 3.673e-6
0.072, 3.579e-6
0.076, 3.602e-6
0.080, 3.167e-6
0.084, 3.343e-6
0.088, 3.178e-6
0.092, 3.120e-6
0.096, 2.967e-6
0.100, 3.061e-6
0.104, 2.896e-6
0.108, 2.755e-6
0.112, 2.672e-6
0.116, 2.731e-6
0.120, 2.649e-6
0.124, 2.637e-6
0.128, 2.613e-6
0.132, 2.413e-6
0.136, 2.413e-6
0.140, 2.413e-6
0.144, 2.366e-6
0.148, 2.496e-6
0.152, 2.284e-6
0.156, 2.225e-6
0.160, 2.425e-6
0.164, 2.190e-6
0.168, 2.131e-6
0.172, 2.284e-6
0.176, 2.260e-6
0.180, 2.095e-6
0.184, 2.048e-6
0.188, 2.095e-6
0.192, 1.989e-6
0.196, 2.084e-6
0.200, 2.084e-6
0.204, 2.131e-6
0.208, 1.978e-6
0.212, 2.072e-6
0.216, 2.072e-6
0.220, 2.095e-6
0.224, 2.013e-6
0.228, 2.095e-6
0.232, 2.084e-6
0.236, 1.848e-6
0.240, 2.037e-6
0.244, 1.848e-6
0.248, 2.001e-6
0.252, 1.801e-6
0.256, 2.013e-6
0.260, 1.907e-6
0.264, 1.919e-6
0.268, 1.966e-6
0.272, 1.919e-6
0.276, 1.942e-6
0.280, 1.884e-6
0.284, 1.884e-6
0.288, 1.978e-6
0.292, 1.884e-6
0.296, 1.778e-6
0.300, 1.907e-6
0.304, 1.813e-6
0.308, 1.884e-6
0.312, 1.825e-6
0.316, 1.860e-6
0.320, 1.884e-6
0.324, 1.825e-6
0.328, 1.848e-6
0.332, 1.907e-6
0.336, 1.801e-6
0.340, 1.789e-6
0.344, 1.672e-6
0.348, 1.766e-6
0.352, 1.801e-6
0.356, 1.907e-6
0.360, 1.825e-6
0.364, 1.884e-6
0.368, 1.813e-6
0.372, 1.836e-6
0.376, 1.766e-6
0.380, 1.966e-6
0.384, 1.860e-6
0.388, 1.919e-6
0.392, 1.836e-6
0.396, 1.872e-6
0.400, 1.801e-6
0.404, 1.766e-6
0.408, 1.919e-6
0.412, 1.801e-6
0.416, 1.848e-6
0.420, 1.860e-6
0.424, 1.978e-6
0.428, 1.954e-6
0.432, 1.931e-6
0.436, 1.966e-6
0.440, 1.942e-6
0.444, 1.966e-6
0.448, 2.037e-6
0.452, 2.201e-6
0.456, 2.354e-6
0.460, 2.307e-6
0.464, 2.496e-6
0.468, 2.625e-6
0.472, 2.790e-6
0.476, 3.049e-6
0.480, 3.461e-6
0.484, 4.073e-6
0.488, 4.673e-6
0.492, 5.662e-6
0.496, 6.686e-6
0.500, 7.781e-6
0.504, 8.546e-6
0.508, 9.335e-6
0.512, 9.677e-6
0.516, 1.029e-5
0.520, 1.071e-5
0.524, 1.097e-5
0.528, 1.118e-5
0.532, 1.112e-5
0.536, 1.125e-5
0.540, 1.143e-5
0.544, 1.171e-5
0.548, 1.217e-5
0.552, 1.303e-5
0.556, 1.396e-5
0.560, 1.493e-5
0.564, 1.559e-5
0.568, 1.569e-5
0.572, 1.543e-5
0.576, 1.486e-5
0.580, 1.420e-5
0.584, 1.373e-5
0.588, 1.326e-5
0.592, 1.251e-5
0.596, 1.240e-5
0.600, 1.207e-5
0.604, 1.170e-5
0.608, 1.152e-5
0.612, 1.125e-5
0.616, 1.110e-5
0.620, 1.092e-5
0.624, 1.059e-5
0.628, 1.062e-5
0.632, 1.031e-5
0.636, 1.032e-5
0.640, 1.011e-5
0.644, 9.900e-6
0.648, 9.959e-6
0.652, 9.841e-6
0.656, 9.724e-6
0.660, 9.653e-6
0.664, 9.500e-6
0.668, 9.347e-6
0.672, 9.406e-6
0.676, 9.217e-6
0.680, 9.206e-6
0.684, 9.170e-6
0.688, 9.064e-6
0.692, 8.888e-6
0.696, 8.758e-6
0.700, 8.841e-6
0.704, 8.758e-6
0.708, 8.617e-6
0.712, 8.441e-6
0.716, 8.511e-6
0.720, 8.452e-6
0.724, 8.264e-6
0.728, 8.299e-6
0.732, 8.111e-6
0.736, 8.028e-6
0.740, 7.923e-6
0.744, 7.817e-6
0.748, 7.911e-6
0.752, 7.781e-6
0.756, 7.722e-6
0.760, 7.581e-6
0.764, 7.675e-6
0.768, 7.522e-6
0.772, 7.452e-6
0.776, 7.487e-6
0.780, 7.522e-6
0.784, 7.511e-6
0.788, 7.334e-6
0.792, 7.287e-6
0.796, 7.228e-6
0.800, 7.240e-6
0.804, 7.169e-6
0.808, 6.934e-6
0.812, 7.040e-6
0.816, 7.063e-6
0.820, 6.922e-6
0.824, 6.781e-6
0.828, 6.922e-6
0.832, 6.945e-6
0.836, 6.745e-6
0.840, 6.887e-6
0.844, 6.851e-6
0.848, 6.816e-6
0.852, 6.781e-6
0.856, 6.804e-6
0.860, 6.734e-6
0.864, 6.887e-6
0.868, 6.651e-6
0.872, 6.840e-6
0.876, 6.875e-6
0.880, 6.898e-6
0.884, 6.945e-6
0.888, 6.816e-6
0.892, 7.004e-6
0.896, 7.087e-6
0.900, 6.851e-6
0.904, 6.969e-6
0.908, 6.969e-6
0.912, 7.004e-6
0.916, 7.004e-6
0.920, 6.957e-6
0.924, 7.228e-6
0.928, 7.134e-6
0.932, 7.063e-6
0.936, 7.157e-6
0.940, 7.287e-6
0.944, 7.169e-6
0.948, 7.169e-6
0.952, 7.204e-6
0.956, 7.310e-6
0.960, 7.252e-6
0.964, 7.110e-6
0.968, 7.357e-6
0.972, 7.357e-6
0.976, 7.393e-6
0.980, 7.511e-6
0.984, 7.511e-6
0.988, 7.475e-6
0.992, 7.569e-6
0.996, 7.734e-6
1.000, 7.687e-6
