July 23, 2025   20:22:23
Differential Pulse Voltammetry
File: e:\Data Source:  Experiment
Instrument Model:  CHI620E
Header: 
Note: 

Init E (V) = 0
Final E (V) = 1
Incr E (V) = 0.004
Amplitude (V) = 0.05
Pulse Width (sec) = 0.05
Sample Width (sec) = 0.0167
Pulse Period (sec) = 0.5
Quiet Time (sec) = 2
Sensitivity (A/V) = 0.01

Results:

Channel 1:
Ep = 0.604V
ip = 1.403e-5A
Ap = 1.265e-6VA

Potential/V, Current/A

0.004, 2.472e-7
0.008, 2.825e-7
0.012, 3.649e-7
0.016, 2.354e-7
0.020, 2.943e-7
0.024, 2.472e-7
0.028, 3.296e-7
0.032, 2.119e-7
0.036, 1.766e-7
0.040, 2.354e-7
0.044, 2.119e-7
0.048, 2.001e-7
0.052, 1.884e-7
0.056, 1.530e-7
0.060, 2.354e-7
0.064, 9.417e-8
0.068, 1.884e-7
0.072, 2.590e-7
0.076, 3.296e-7
0.080, 1.295e-7
0.084, 2.119e-7
0.088, 1.530e-7
0.092, 2.119e-7
0.096, 1.413e-7
0.100, 1.648e-7
0.104, 1.766e-7
0.108, 4.708e-8
0.112, 2.472e-7
0.116, 1.413e-7
0.120, 4.709e-8
0.124, 1.177e-7
0.128, 4.708e-8
0.132, 4.709e-8
0.136, 2.119e-7
0.140, 3.061e-7
0.144, 1.884e-7
0.148, 7.063e-8
0.152, 9.418e-8
0.156, 2.119e-7
0.160, 2.237e-7
0.164, 1.766e-7
0.168, 3.414e-7
0.172, 2.237e-7
0.176, 2.119e-7
0.180, 1.648e-7
0.184, 2.119e-7
0.188, 2.119e-7
0.192, 1.530e-7
0.196, 7.063e-8
0.200, 1.413e-7
0.204, 2.472e-7
0.208, 1.413e-7
0.212, 2.001e-7
0.216, 1.295e-7
0.220, 1.530e-7
0.224, 2.472e-7
0.228, 2.472e-7
0.232, 1.766e-7
0.236, 2.472e-7
0.240, -1.177e-8
0.244, 2.119e-7
0.248, 1.059e-7
0.252, 2.354e-7
0.256, 2.943e-7
0.260, 1.766e-7
0.264, 1.648e-7
0.268, 1.648e-7
0.272, 2.354e-7
0.276, 1.177e-7
0.280, 8.240e-8
0.284, 1.177e-7
0.288, 1.177e-7
0.292, 2.119e-7
0.296, 1.766e-7
0.300, 1.648e-7
0.304, 2.237e-7
0.308, 1.177e-7
0.312, 3.532e-8
0.316, 1.766e-7
0.320, 2.237e-7
0.324, 8.240e-8
0.328, 9.418e-8
0.332, 2.001e-7
0.336, 1.413e-7
0.340, 1.413e-7
0.344, 1.530e-7
0.348, 1.884e-7
0.352, 3.532e-8
0.356, 1.648e-7
0.360, 2.590e-7
0.364, 2.708e-7
0.368, 2.825e-7
0.372, 2.119e-7
0.376, 3.414e-7
0.380, 1.648e-7
0.384, 3.649e-7
0.388, 2.354e-7
0.392, 1.413e-7
0.396, 2.472e-7
0.400, 2.472e-7
0.404, 2.590e-7
0.408, 3.061e-7
0.412, 3.296e-7
0.416, 2.237e-7
0.420, 2.237e-7
0.424, 2.354e-7
0.428, 3.178e-7
0.432, 3.296e-7
0.436, 3.061e-7
0.440, 2.708e-7
0.444, 3.532e-7
0.448, 3.885e-7
0.452, 3.885e-7
0.456, 3.767e-7
0.460, 4.591e-7
0.464, 4.238e-7
0.468, 4.002e-7
0.472, 3.532e-7
0.476, 4.356e-7
0.480, 5.180e-7
0.484, 4.120e-7
0.488, 4.944e-7
0.492, 2.472e-7
0.496, 3.767e-7
0.500, 5.180e-7
0.504, 4.002e-7
0.508, 5.062e-7
0.512, 4.709e-7
0.516, 4.356e-7
0.520, 4.356e-7
0.524, 5.886e-7
0.528, 6.828e-7
0.532, 5.180e-7
0.536, 4.944e-7
0.540, 6.239e-7
0.544, 8.476e-7
0.548, 9.653e-7
0.552, 1.118e-6
0.556, 1.719e-6
0.560, 2.307e-6
0.564, 3.120e-6
0.568, 3.590e-6
0.572, 4.002e-6
0.576, 4.579e-6
0.580, 5.109e-6
0.584, 5.933e-6
0.588, 7.299e-6
0.592, 8.982e-6
0.596, 1.121e-5
0.600, 1.395e-5
0.604, 1.589e-5
0.608, 1.587e-5
0.612, 1.468e-5
0.616, 1.376e-5
0.620, 1.294e-5
0.624, 1.235e-5
0.628, 1.176e-5
0.632, 1.123e-5
0.636, 1.091e-5
0.640, 1.049e-5
0.644, 1.025e-5
0.648, 9.853e-6
0.652, 9.571e-6
0.656, 9.370e-6
0.660, 9.135e-6
0.664, 8.853e-6
0.668, 8.664e-6
0.672, 8.629e-6
0.676, 8.252e-6
0.680, 8.134e-6
0.684, 8.123e-6
0.688, 8.017e-6
0.692, 7.805e-6
0.696, 7.558e-6
0.700, 7.428e-6
0.704, 7.475e-6
0.708, 7.240e-6
0.712, 7.193e-6
0.716, 7.146e-6
0.720, 7.122e-6
0.724, 6.993e-6
0.728, 6.863e-6
0.732, 6.875e-6
0.736, 6.757e-6
0.740, 6.581e-6
0.744, 6.475e-6
0.748, 6.604e-6
0.752, 6.380e-6
0.756, 6.439e-6
0.760, 6.192e-6
0.764, 6.216e-6
0.768, 6.216e-6
0.772, 6.063e-6
0.776, 6.169e-6
0.780, 6.145e-6
0.784, 6.074e-6
0.788, 5.874e-6
0.792, 5.815e-6
0.796, 5.827e-6
0.800, 5.686e-6
0.804, 5.662e-6
0.808, 5.651e-6
0.812, 5.674e-6
0.816, 5.556e-6
0.820, 5.509e-6
0.824, 5.191e-6
0.828, 5.286e-6
0.832, 5.356e-6
0.836, 5.239e-6
0.840, 5.274e-6
0.844, 5.215e-6
0.848, 5.203e-6
0.852, 5.203e-6
0.856, 5.003e-6
0.860, 5.062e-6
0.864, 4.921e-6
0.868, 5.133e-6
0.872, 5.133e-6
0.876, 5.038e-6
0.880, 5.062e-6
0.884, 5.050e-6
0.888, 5.015e-6
0.892, 5.085e-6
0.896, 5.038e-6
0.900, 4.815e-6
0.904, 5.027e-6
0.908, 4.921e-6
0.912, 5.027e-6
0.916, 5.085e-6
0.920, 4.897e-6
0.924, 5.144e-6
0.928, 4.944e-6
0.932, 4.885e-6
0.936, 5.144e-6
0.940, 4.897e-6
0.944, 4.874e-6
0.948, 4.850e-6
0.952, 4.791e-6
0.956, 4.803e-6
0.960, 4.885e-6
0.964, 4.732e-6
0.968, 4.650e-6
0.972, 4.673e-6
0.976, 4.779e-6
0.980, 4.673e-6
0.984, 4.591e-6
0.988, 4.638e-6
0.992, 4.732e-6
0.996, 4.662e-6
1.000, 4.721e-6
