July 10, 2025   16:37:59
Differential Pulse Voltammetry
File: e:\Data Source:  Experiment
Instrument Model:  CHI620E
Header: 
Note: 

Init E (V) = 0
Final E (V) = 1
Incr E (V) = 0.004
Amplitude (V) = 0.05
Pulse Width (sec) = 0.05
Sample Width (sec) = 0.0167
Pulse Period (sec) = 0.5
Quiet Time (sec) = 2
Sensitivity (A/V) = 0.01

Results:

Channel 1:
Ep = 0.904V
ip = 1.934e-4A
Ap = 2.821e-5VA

Potential/V, Current/A

0.004, 1.241e-5
0.008, 1.143e-5
0.012, 1.100e-5
0.016, 1.028e-5
0.020, 9.806e-6
0.024, 9.347e-6
0.028, 9.147e-6
0.032, 8.982e-6
0.036, 8.911e-6
0.040, 8.970e-6
0.044, 8.947e-6
0.048, 8.829e-6
0.052, 8.676e-6
0.056, 8.335e-6
0.060, 8.205e-6
0.064, 7.993e-6
0.068, 7.687e-6
0.072, 7.628e-6
0.076, 7.463e-6
0.080, 7.475e-6
0.084, 7.193e-6
0.088, 7.157e-6
0.092, 7.098e-6
0.096, 6.922e-6
0.100, 6.816e-6
0.104, 6.651e-6
0.108, 6.710e-6
0.112, 6.898e-6
0.116, 6.745e-6
0.120, 6.663e-6
0.124, 6.557e-6
0.128, 6.310e-6
0.132, 6.027e-6
0.136, 5.862e-6
0.140, 5.533e-6
0.144, 5.274e-6
0.148, 4.909e-6
0.152, 4.485e-6
0.156, 4.426e-6
0.160, 4.132e-6
0.164, 3.743e-6
0.168, 3.590e-6
0.172, 3.367e-6
0.176, 3.061e-6
0.180, 2.837e-6
0.184, 2.484e-6
0.188, 2.390e-6
0.192, 2.225e-6
0.196, 2.025e-6
0.200, 1.860e-6
0.204, 1.813e-6
0.208, 1.836e-6
0.212, 1.660e-6
0.216, 1.672e-6
0.220, 1.589e-6
0.224, 1.589e-6
0.228, 1.318e-6
0.232, 1.483e-6
0.236, 1.436e-6
0.240, 1.436e-6
0.244, 1.366e-6
0.248, 1.330e-6
0.252, 1.366e-6
0.256, 1.248e-6
0.260, 1.095e-6
0.264, 1.177e-6
0.268, 1.213e-6
0.272, 1.130e-6
0.276, 1.224e-6
0.280, 1.260e-6
0.284, 1.165e-6
0.288, 1.130e-6
0.292, 1.036e-6
0.296, 9.653e-7
0.300, 1.048e-6
0.304, 1.118e-6
0.308, 9.300e-7
0.312, 8.593e-7
0.316, 8.123e-7
0.320, 8.947e-7
0.324, 9.064e-7
0.328, 7.534e-7
0.332, 6.828e-7
0.336, 9.182e-7
0.340, 8.240e-7
0.344, 8.123e-7
0.348, 8.358e-7
0.352, 6.239e-7
0.356, 7.534e-7
0.360, 8.594e-7
0.364, 8.240e-7
0.368, 8.593e-7
0.372, 8.947e-7
0.376, 6.945e-7
0.380, 8.005e-7
0.384, 8.829e-7
0.388, 6.475e-7
0.392, 7.887e-7
0.396, 8.476e-7
0.400, 7.770e-7
0.404, 8.829e-7
0.408, 6.592e-7
0.412, 7.887e-7
0.416, 6.475e-7
0.420, 7.299e-7
0.424, 6.592e-7
0.428, 7.181e-7
0.432, 6.710e-7
0.436, 7.063e-7
0.440, 6.710e-7
0.444, 6.592e-7
0.448, 7.299e-7
0.452, 6.945e-7
0.456, 6.475e-7
0.460, 6.710e-7
0.464, 7.887e-7
0.468, 6.828e-7
0.472, 6.121e-7
0.476, 7.887e-7
0.480, 7.299e-7
0.484, 8.476e-7
0.488, 5.651e-7
0.492, 6.592e-7
0.496, 8.594e-7
0.500, 5.651e-7
0.504, 5.886e-7
0.508, 6.239e-7
0.512, 8.005e-7
0.516, 5.415e-7
0.520, 6.475e-7
0.524, 6.592e-7
0.528, 6.945e-7
0.532, 8.711e-7
0.536, 6.710e-7
0.540, 8.123e-7
0.544, 8.240e-7
0.548, 5.533e-7
0.552, 7.416e-7
0.556, 8.240e-7
0.560, 8.476e-7
0.564, 8.358e-7
0.568, 7.534e-7
0.572, 9.418e-7
0.576, 8.123e-7
0.580, 8.240e-7
0.584, 9.653e-7
0.588, 1.024e-6
0.592, 1.059e-6
0.596, 1.095e-6
0.600, 1.107e-6
0.604, 1.165e-6
0.608, 1.095e-6
0.612, 1.177e-6
0.616, 1.236e-6
0.620, 1.224e-6
0.624, 1.224e-6
0.628, 1.130e-6
0.632, 1.460e-6
0.636, 1.424e-6
0.640, 1.401e-6
0.644, 1.424e-6
0.648, 1.495e-6
0.652, 1.495e-6
0.656, 1.601e-6
0.660, 1.766e-6
0.664, 1.848e-6
0.668, 1.931e-6
0.672, 2.084e-6
0.676, 2.154e-6
0.680, 2.296e-6
0.684, 2.307e-6
0.688, 2.672e-6
0.692, 2.919e-6
0.696, 3.120e-6
0.700, 3.496e-6
0.704, 4.002e-6
0.708, 4.438e-6
0.712, 5.133e-6
0.716, 6.169e-6
0.720, 7.252e-6
0.724, 8.511e-6
0.728, 1.038e-5
0.732, 1.294e-5
0.736, 1.668e-5
0.740, 2.219e-5
0.744, 2.984e-5
0.748, 4.042e-5
0.752, 5.399e-5
0.756, 6.727e-5
0.760, 7.997e-5
0.764, 9.285e-5
0.768, 1.031e-4
0.772, 1.100e-4
0.776, 1.113e-4
0.780, 1.068e-4
0.784, 1.045e-4
0.788, 1.047e-4
0.792, 1.063e-4
0.796, 1.078e-4
0.800, 1.110e-4
0.804, 1.140e-4
0.808, 1.176e-4
0.812, 1.213e-4
0.816, 1.257e-4
0.820, 1.299e-4
0.824, 1.342e-4
0.828, 1.391e-4
0.832, 1.438e-4
0.836, 1.490e-4
0.840, 1.546e-4
0.844, 1.603e-4
0.848, 1.665e-4
0.852, 1.726e-4
0.856, 1.795e-4
0.860, 1.864e-4
0.864, 1.936e-4
0.868, 2.011e-4
0.872, 2.087e-4
0.876, 2.157e-4
0.880, 2.230e-4
0.884, 2.295e-4
0.888, 2.350e-4
0.892, 2.397e-4
0.896, 2.430e-4
0.900, 2.450e-4
0.904, 2.461e-4
0.908, 2.456e-4
0.912, 2.434e-4
0.916, 2.401e-4
0.920, 2.351e-4
0.924, 2.294e-4
0.928, 2.228e-4
0.932, 2.154e-4
0.936, 2.077e-4
0.940, 2.005e-4
0.944, 1.929e-4
0.948, 1.851e-4
0.952, 1.775e-4
0.956, 1.696e-4
0.960, 1.611e-4
0.964, 1.524e-4
0.968, 1.434e-4
0.972, 1.340e-4
0.976, 1.246e-4
0.980, 1.151e-4
0.984, 1.055e-4
0.988, 9.649e-5
0.992, 8.795e-5
0.996, 8.011e-5
1.000, 7.241e-5
