July 12, 2025   21:21:13
Differential Pulse Voltammetry
File: e:\Data Source:  Experiment
Instrument Model:  CHI620E
Header: 
Note: 

Init E (V) = 0
Final E (V) = 1
Incr E (V) = 0.004
Amplitude (V) = 0.05
Pulse Width (sec) = 0.05
Sample Width (sec) = 0.0167
Pulse Period (sec) = 0.5
Quiet Time (sec) = 2
Sensitivity (A/V) = 0.01

Results:

Channel 1:
Ep = 0.656V
ip = 4.147e-5A
Ap = 2.009e-6VA

Potential/V, Current/A

0.004, 7.711e-6
0.008, 7.640e-6
0.012, 7.322e-6
0.016, 6.898e-6
0.020, 6.451e-6
0.024, 6.192e-6
0.028, 5.815e-6
0.032, 5.780e-6
0.036, 5.403e-6
0.040, 5.321e-6
0.044, 5.239e-6
0.048, 5.262e-6
0.052, 4.991e-6
0.056, 5.015e-6
0.060, 5.062e-6
0.064, 5.085e-6
0.068, 5.168e-6
0.072, 5.144e-6
0.076, 5.144e-6
0.080, 5.356e-6
0.084, 5.250e-6
0.088, 5.321e-6
0.092, 5.474e-6
0.096, 5.533e-6
0.100, 5.545e-6
0.104, 5.745e-6
0.108, 5.651e-6
0.112, 5.780e-6
0.116, 5.815e-6
0.120, 5.780e-6
0.124, 5.874e-6
0.128, 5.898e-6
0.132, 5.968e-6
0.136, 6.145e-6
0.140, 6.121e-6
0.144, 6.286e-6
0.148, 6.145e-6
0.152, 6.345e-6
0.156, 6.192e-6
0.160, 6.392e-6
0.164, 6.439e-6
0.168, 6.345e-6
0.172, 6.439e-6
0.176, 6.392e-6
0.180, 6.557e-6
0.184, 6.380e-6
0.188, 6.475e-6
0.192, 6.533e-6
0.196, 6.510e-6
0.200, 6.427e-6
0.204, 6.357e-6
0.208, 6.369e-6
0.212, 6.251e-6
0.216, 6.227e-6
0.220, 6.063e-6
0.224, 6.121e-6
0.228, 6.086e-6
0.232, 6.004e-6
0.236, 6.098e-6
0.240, 5.968e-6
0.244, 5.827e-6
0.248, 5.780e-6
0.252, 5.651e-6
0.256, 5.933e-6
0.260, 5.533e-6
0.264, 5.439e-6
0.268, 5.639e-6
0.272, 5.533e-6
0.276, 5.333e-6
0.280, 5.297e-6
0.284, 5.262e-6
0.288, 5.309e-6
0.292, 5.274e-6
0.296, 5.215e-6
0.300, 5.168e-6
0.304, 5.085e-6
0.308, 5.038e-6
0.312, 5.015e-6
0.316, 5.085e-6
0.320, 5.038e-6
0.324, 4.932e-6
0.328, 4.980e-6
0.332, 4.897e-6
0.336, 4.874e-6
0.340, 4.862e-6
0.344, 4.827e-6
0.348, 4.838e-6
0.352, 4.732e-6
0.356, 4.779e-6
0.360, 4.685e-6
0.364, 4.709e-6
0.368, 4.850e-6
0.372, 4.779e-6
0.376, 4.791e-6
0.380, 4.827e-6
0.384, 4.768e-6
0.388, 4.732e-6
0.392, 4.721e-6
0.396, 4.603e-6
0.400, 4.697e-6
0.404, 4.685e-6
0.408, 4.638e-6
0.412, 4.803e-6
0.416, 4.520e-6
0.420, 4.603e-6
0.424, 4.591e-6
0.428, 4.532e-6
0.432, 4.650e-6
0.436, 4.532e-6
0.440, 4.450e-6
0.444, 4.615e-6
0.448, 4.379e-6
0.452, 4.403e-6
0.456, 4.509e-6
0.460, 4.532e-6
0.464, 4.509e-6
0.468, 4.391e-6
0.472, 4.473e-6
0.476, 4.473e-6
0.480, 4.568e-6
0.484, 4.367e-6
0.488, 4.450e-6
0.492, 4.391e-6
0.496, 4.391e-6
0.500, 4.391e-6
0.504, 4.414e-6
0.508, 4.509e-6
0.512, 4.414e-6
0.516, 4.203e-6
0.520, 4.309e-6
0.524, 4.520e-6
0.528, 4.509e-6
0.532, 4.520e-6
0.536, 4.650e-6
0.540, 4.603e-6
0.544, 4.768e-6
0.548, 5.027e-6
0.552, 4.991e-6
0.556, 5.309e-6
0.560, 5.568e-6
0.564, 5.945e-6
0.568, 6.451e-6
0.572, 7.181e-6
0.576, 7.781e-6
0.580, 8.617e-6
0.584, 9.853e-6
0.588, 1.127e-5
0.592, 1.298e-5
0.596, 1.500e-5
0.600, 1.769e-5
0.604, 2.100e-5
0.608, 2.487e-5
0.612, 2.958e-5
0.616, 3.550e-5
0.620, 4.214e-5
0.624, 4.952e-5
0.628, 5.724e-5
0.632, 6.485e-5
0.636, 7.240e-5
0.640, 7.926e-5
0.644, 8.497e-5
0.648, 8.964e-5
0.652, 9.272e-5
0.656, 9.399e-5
0.660, 9.374e-5
0.664, 9.214e-5
0.668, 8.989e-5
0.672, 8.705e-5
0.676, 8.393e-5
0.680, 8.107e-5
0.684, 7.845e-5
0.688, 7.628e-5
0.692, 7.433e-5
0.696, 7.283e-5
0.700, 7.196e-5
0.704, 7.155e-5
0.708, 7.129e-5
0.712, 7.169e-5
0.716, 7.256e-5
0.720, 7.359e-5
0.724, 7.518e-5
0.728, 7.689e-5
0.732, 7.924e-5
0.736, 8.185e-5
0.740, 8.442e-5
0.744, 8.719e-5
0.748, 9.049e-5
0.752, 9.361e-5
0.756, 9.697e-5
0.760, 1.002e-4
0.764, 1.037e-4
0.768, 1.070e-4
0.772, 1.104e-4
0.776, 1.137e-4
0.780, 1.171e-4
0.784, 1.202e-4
0.788, 1.232e-4
0.792, 1.259e-4
0.796, 1.281e-4
0.800, 1.301e-4
0.804, 1.314e-4
0.808, 1.320e-4
0.812, 1.318e-4
0.816, 1.305e-4
0.820, 1.282e-4
0.824, 1.251e-4
0.828, 1.213e-4
0.832, 1.168e-4
0.836, 1.118e-4
0.840, 1.069e-4
0.844, 1.020e-4
0.848, 9.688e-5
0.852, 9.174e-5
0.856, 8.698e-5
0.860, 8.252e-5
0.864, 7.826e-5
0.868, 7.389e-5
0.872, 6.993e-5
0.876, 6.599e-5
0.880, 6.247e-5
0.884, 5.895e-5
0.888, 5.565e-5
0.892, 5.256e-5
0.896, 4.963e-5
0.900, 4.678e-5
0.904, 4.414e-5
0.908, 4.177e-5
0.912, 3.953e-5
0.916, 3.719e-5
0.920, 3.528e-5
0.924, 3.351e-5
0.928, 3.188e-5
0.932, 3.015e-5
0.936, 2.901e-5
0.940, 2.759e-5
0.944, 2.640e-5
0.948, 2.518e-5
0.952, 2.405e-5
0.956, 2.312e-5
0.960, 2.232e-5
0.964, 2.137e-5
0.968, 2.061e-5
0.972, 2.001e-5
0.976, 1.947e-5
0.980, 1.873e-5
0.984, 1.818e-5
0.988, 1.772e-5
0.992, 1.722e-5
0.996, 1.687e-5
1.000, 1.636e-5
