July 15, 2025   13:57:56
Differential Pulse Voltammetry
File: e:\Data Source:  Experiment
Instrument Model:  CHI620E
Header: 
Note: 

Init E (V) = 0
Final E (V) = 1
Incr E (V) = 0.004
Amplitude (V) = 0.05
Pulse Width (sec) = 0.05
Sample Width (sec) = 0.0167
Pulse Period (sec) = 0.5
Quiet Time (sec) = 2
Sensitivity (A/V) = 0.01

Results:

Channel 1:

Potential/V, Current/A

0.004, 1.198e-5
0.008, 1.127e-5
0.012, 1.067e-5
0.016, 9.959e-6
0.020, 9.524e-6
0.024, 8.935e-6
0.028, 8.688e-6
0.032, 8.099e-6
0.036, 7.734e-6
0.040, 7.581e-6
0.044, 7.452e-6
0.048, 7.040e-6
0.052, 6.851e-6
0.056, 6.698e-6
0.060, 6.581e-6
0.064, 6.263e-6
0.068, 6.098e-6
0.072, 6.051e-6
0.076, 5.592e-6
0.080, 5.815e-6
0.084, 6.027e-6
0.088, 5.615e-6
0.092, 5.462e-6
0.096, 5.568e-6
0.100, 5.203e-6
0.104, 5.003e-6
0.108, 5.309e-6
0.112, 5.015e-6
0.116, 5.050e-6
0.120, 4.968e-6
0.124, 4.897e-6
0.128, 4.744e-6
0.132, 4.662e-6
0.136, 4.650e-6
0.140, 4.591e-6
0.144, 4.650e-6
0.148, 4.473e-6
0.152, 4.403e-6
0.156, 4.391e-6
0.160, 4.332e-6
0.164, 4.285e-6
0.168, 4.226e-6
0.172, 4.179e-6
0.176, 4.097e-6
0.180, 4.238e-6
0.184, 3.991e-6
0.188, 4.014e-6
0.192, 3.967e-6
0.196, 3.826e-6
0.200, 3.814e-6
0.204, 3.920e-6
0.208, 3.991e-6
0.212, 3.743e-6
0.216, 3.897e-6
0.220, 3.720e-6
0.224, 3.791e-6
0.228, 3.626e-6
0.232, 3.661e-6
0.236, 3.614e-6
0.240, 3.449e-6
0.244, 3.567e-6
0.248, 3.437e-6
0.252, 3.532e-6
0.256, 3.449e-6
0.260, 3.402e-6
0.264, 3.449e-6
0.268, 3.496e-6
0.272, 3.426e-6
0.276, 3.367e-6
0.280, 3.308e-6
0.284, 3.343e-6
0.288, 3.273e-6
0.292, 3.273e-6
0.296, 3.120e-6
0.300, 3.284e-6
0.304, 3.155e-6
0.308, 3.131e-6
0.312, 3.002e-6
0.316, 3.143e-6
0.320, 3.108e-6
0.324, 3.025e-6
0.328, 2.978e-6
0.332, 3.072e-6
0.336, 3.025e-6
0.340, 3.014e-6
0.344, 2.931e-6
0.348, 2.872e-6
0.352, 2.919e-6
0.356, 2.813e-6
0.360, 2.884e-6
0.364, 2.967e-6
0.368, 3.096e-6
0.372, 2.943e-6
0.376, 2.884e-6
0.380, 2.849e-6
0.384, 2.802e-6
0.388, 2.872e-6
0.392, 2.837e-6
0.396, 2.731e-6
0.400, 2.743e-6
0.404, 2.625e-6
0.408, 2.755e-6
0.412, 2.778e-6
0.416, 2.719e-6
0.420, 2.708e-6
0.424, 2.578e-6
0.428, 2.825e-6
0.432, 2.708e-6
0.436, 2.790e-6
0.440, 2.708e-6
0.444, 2.825e-6
0.448, 2.696e-6
0.452, 2.755e-6
0.456, 2.590e-6
0.460, 2.696e-6
0.464, 2.684e-6
0.468, 2.613e-6
0.472, 2.708e-6
0.476, 2.861e-6
0.480, 2.778e-6
0.484, 2.802e-6
0.488, 2.708e-6
0.492, 2.696e-6
0.496, 2.813e-6
0.500, 2.837e-6
0.504, 2.696e-6
0.508, 2.778e-6
0.512, 2.825e-6
0.516, 2.813e-6
0.520, 2.849e-6
0.524, 3.049e-6
0.528, 2.908e-6
0.532, 2.814e-6
0.536, 2.967e-6
0.540, 3.108e-6
0.544, 3.014e-6
0.548, 2.978e-6
0.552, 3.014e-6
0.556, 3.084e-6
0.560, 3.072e-6
0.564, 3.143e-6
0.568, 3.096e-6
0.572, 3.320e-6
0.576, 3.414e-6
0.580, 3.355e-6
0.584, 3.626e-6
0.588, 3.685e-6
0.592, 3.955e-6
0.596, 4.261e-6
0.600, 4.579e-6
0.604, 5.297e-6
0.608, 6.015e-6
0.612, 6.922e-6
0.616, 8.017e-6
0.620, 9.547e-6
0.624, 1.127e-5
0.628, 1.337e-5
0.632, 1.600e-5
0.636, 1.938e-5
0.640, 2.381e-5
0.644, 2.917e-5
0.648, 3.527e-5
0.652, 4.121e-5
0.656, 4.648e-5
0.660, 5.069e-5
0.664, 5.286e-5
0.668, 5.368e-5
0.672, 5.299e-5
0.676, 5.203e-5
0.680, 5.134e-5
0.684, 5.110e-5
0.688, 5.140e-5
0.692, 5.201e-5
0.696, 5.228e-5
0.700, 5.327e-5
0.704, 5.399e-5
0.708, 5.467e-5
0.712, 5.567e-5
0.716, 5.633e-5
0.720, 5.705e-5
0.724, 5.767e-5
0.728, 5.854e-5
0.732, 5.939e-5
0.736, 5.955e-5
0.740, 6.023e-5
0.744, 6.096e-5
0.748, 6.181e-5
0.752, 6.253e-5
0.756, 6.300e-5
0.760, 6.327e-5
0.764, 6.382e-5
0.768, 6.418e-5
0.772, 6.450e-5
0.776, 6.450e-5
0.780, 6.450e-5
0.784, 6.430e-5
0.788, 6.397e-5
0.792, 6.343e-5
0.796, 6.265e-5
0.800, 6.259e-5
0.804, 6.169e-5
0.808, 6.073e-5
0.812, 5.946e-5
0.816, 5.865e-5
0.820, 5.739e-5
0.824, 5.607e-5
0.828, 5.407e-5
0.832, 5.253e-5
0.836, 5.120e-5
0.840, 4.945e-5
0.844, 4.775e-5
0.848, 4.603e-5
0.852, 4.416e-5
0.856, 4.231e-5
0.860, 4.066e-5
0.864, 3.892e-5
0.868, 3.709e-5
0.872, 3.539e-5
0.876, 3.388e-5
0.880, 3.227e-5
0.884, 3.091e-5
0.888, 2.951e-5
0.892, 2.842e-5
0.896, 2.712e-5
0.900, 2.662e-5
0.904, 2.580e-5
0.908, 2.499e-5
0.912, 2.399e-5
0.916, 2.258e-5
0.920, 2.177e-5
0.924, 2.100e-5
0.928, 2.059e-5
0.932, 1.985e-5
0.936, 1.925e-5
0.940, 1.872e-5
0.944, 1.819e-5
0.948, 1.795e-5
0.952, 1.752e-5
0.956, 1.720e-5
0.960, 1.676e-5
0.964, 1.657e-5
0.968, 1.621e-5
0.972, 1.602e-5
0.976, 1.590e-5
0.980, 1.557e-5
0.984, 1.543e-5
0.988, 1.530e-5
0.992, 1.500e-5
0.996, 1.494e-5
1.000, 1.499e-5
