July 14, 2025   11:02:11
Differential Pulse Voltammetry
File: e:\Data Source:  Experiment
Instrument Model:  CHI620E
Header: 
Note: 

Init E (V) = 0
Final E (V) = 1
Incr E (V) = 0.004
Amplitude (V) = 0.05
Pulse Width (sec) = 0.05
Sample Width (sec) = 0.0167
Pulse Period (sec) = 0.5
Quiet Time (sec) = 2
Sensitivity (A/V) = 0.01

Results:

Channel 1:
Ep = 0.800V
ip = 3.923e-5A
Ap = 7.111e-6VA

Potential/V, Current/A

0.004, 8.994e-6
0.008, 8.017e-6
0.012, 7.334e-6
0.016, 6.804e-6
0.020, 6.333e-6
0.024, 6.121e-6
0.028, 6.039e-6
0.032, 5.792e-6
0.036, 5.450e-6
0.040, 5.403e-6
0.044, 5.215e-6
0.048, 4.968e-6
0.052, 4.709e-6
0.056, 4.520e-6
0.060, 4.520e-6
0.064, 4.414e-6
0.068, 4.214e-6
0.072, 4.038e-6
0.076, 3.897e-6
0.080, 3.849e-6
0.084, 3.779e-6
0.088, 3.673e-6
0.092, 3.626e-6
0.096, 3.449e-6
0.100, 3.473e-6
0.104, 3.320e-6
0.108, 3.308e-6
0.112, 3.214e-6
0.116, 3.084e-6
0.120, 2.849e-6
0.124, 2.919e-6
0.128, 2.872e-6
0.132, 2.719e-6
0.136, 2.672e-6
0.140, 2.755e-6
0.144, 2.566e-6
0.148, 2.519e-6
0.152, 2.425e-6
0.156, 2.437e-6
0.160, 2.343e-6
0.164, 2.319e-6
0.168, 2.225e-6
0.172, 2.213e-6
0.176, 2.166e-6
0.180, 2.084e-6
0.184, 2.025e-6
0.188, 1.954e-6
0.192, 1.884e-6
0.196, 1.730e-6
0.200, 1.848e-6
0.204, 1.884e-6
0.208, 1.825e-6
0.212, 1.730e-6
0.216, 1.683e-6
0.220, 1.589e-6
0.224, 1.554e-6
0.228, 1.566e-6
0.232, 1.519e-6
0.236, 1.519e-6
0.240, 1.366e-6
0.244, 1.424e-6
0.248, 1.295e-6
0.252, 1.354e-6
0.256, 1.460e-6
0.260, 1.283e-6
0.264, 1.307e-6
0.268, 1.377e-6
0.272, 1.189e-6
0.276, 1.377e-6
0.280, 1.213e-6
0.284, 1.260e-6
0.288, 1.330e-6
0.292, 1.095e-6
0.296, 1.142e-6
0.300, 1.012e-6
0.304, 1.201e-6
0.308, 1.177e-6
0.312, 1.107e-6
0.316, 1.142e-6
0.320, 1.036e-6
0.324, 1.036e-6
0.328, 1.130e-6
0.332, 1.107e-6
0.336, 1.118e-6
0.340, 1.071e-6
0.344, 1.130e-6
0.348, 9.888e-7
0.352, 1.107e-6
0.356, 1.059e-6
0.360, 1.024e-6
0.364, 1.036e-6
0.368, 1.071e-6
0.372, 1.189e-6
0.376, 9.888e-7
0.380, 1.071e-6
0.384, 1.036e-6
0.388, 8.829e-7
0.392, 1.048e-6
0.396, 1.036e-6
0.400, 1.095e-6
0.404, 1.036e-6
0.408, 7.887e-7
0.412, 9.771e-7
0.416, 9.300e-7
0.420, 9.418e-7
0.424, 9.653e-7
0.428, 1.059e-6
0.432, 8.829e-7
0.436, 8.005e-7
0.440, 7.770e-7
0.444, 8.947e-7
0.448, 9.653e-7
0.452, 8.947e-7
0.456, 9.300e-7
0.460, 8.123e-7
0.464, 1.107e-6
0.468, 9.535e-7
0.472, 6.945e-7
0.476, 8.358e-7
0.480, 8.476e-7
0.484, 8.123e-7
0.488, 8.240e-7
0.492, 9.418e-7
0.496, 8.123e-7
0.500, 8.005e-7
0.504, 9.300e-7
0.508, 7.063e-7
0.512, 8.005e-7
0.516, 7.416e-7
0.520, 7.299e-7
0.524, 8.240e-7
0.528, 8.594e-7
0.532, 8.123e-7
0.536, 6.945e-7
0.540, 8.829e-7
0.544, 8.240e-7
0.548, 6.710e-7
0.552, 7.181e-7
0.556, 9.064e-7
0.560, 6.004e-7
0.564, 7.534e-7
0.568, 6.710e-7
0.572, 6.828e-7
0.576, 7.770e-7
0.580, 7.534e-7
0.584, 7.063e-7
0.588, 7.534e-7
0.592, 7.534e-7
0.596, 6.828e-7
0.600, 8.240e-7
0.604, 6.828e-7
0.608, 7.534e-7
0.612, 7.181e-7
0.616, 7.770e-7
0.620, 7.770e-7
0.624, 8.240e-7
0.628, 6.710e-7
0.632, 6.592e-7
0.636, 6.828e-7
0.640, 7.770e-7
0.644, 7.299e-7
0.648, 7.534e-7
0.652, 7.534e-7
0.656, 7.181e-7
0.660, 8.947e-7
0.664, 8.123e-7
0.668, 9.653e-7
0.672, 1.012e-6
0.676, 1.130e-6
0.680, 1.342e-6
0.684, 1.554e-6
0.688, 1.825e-6
0.692, 2.296e-6
0.696, 2.696e-6
0.700, 3.579e-6
0.704, 4.485e-6
0.708, 5.709e-6
0.712, 7.275e-6
0.716, 9.206e-6
0.720, 1.152e-5
0.724, 1.423e-5
0.728, 1.719e-5
0.732, 2.110e-5
0.736, 2.537e-5
0.740, 2.954e-5
0.744, 3.397e-5
0.748, 3.782e-5
0.752, 4.151e-5
0.756, 4.434e-5
0.760, 4.658e-5
0.764, 4.805e-5
0.768, 4.847e-5
0.772, 4.854e-5
0.776, 4.828e-5
0.780, 4.835e-5
0.784, 4.819e-5
0.788, 4.838e-5
0.792, 4.848e-5
0.796, 4.865e-5
0.800, 4.870e-5
0.804, 4.867e-5
0.808, 4.869e-5
0.812, 4.861e-5
0.816, 4.867e-5
0.820, 4.859e-5
0.824, 4.827e-5
0.828, 4.827e-5
0.832, 4.812e-5
0.836, 4.797e-5
0.840, 4.786e-5
0.844, 4.771e-5
0.848, 4.755e-5
0.852, 4.711e-5
0.856, 4.672e-5
0.860, 4.649e-5
0.864, 4.604e-5
0.868, 4.555e-5
0.872, 4.509e-5
0.876, 4.449e-5
0.880, 4.382e-5
0.884, 4.324e-5
0.888, 4.241e-5
0.892, 4.156e-5
0.896, 4.079e-5
0.900, 3.999e-5
0.904, 3.901e-5
0.908, 3.816e-5
0.912, 3.719e-5
0.916, 3.618e-5
0.920, 3.522e-5
0.924, 3.409e-5
0.928, 3.320e-5
0.932, 3.216e-5
0.936, 3.138e-5
0.940, 3.042e-5
0.944, 2.961e-5
0.948, 2.876e-5
0.952, 2.768e-5
0.956, 2.690e-5
0.960, 2.635e-5
0.964, 2.544e-5
0.968, 2.473e-5
0.972, 2.407e-5
0.976, 2.345e-5
0.980, 2.294e-5
0.984, 2.234e-5
0.988, 2.180e-5
0.992, 2.119e-5
0.996, 2.078e-5
1.000, 2.033e-5
