July 23, 2025   17:21:21
Differential Pulse Voltammetry
File: e:\Data Source:  Experiment
Instrument Model:  CHI620E
Header: 
Note: 

Init E (V) = 0
Final E (V) = 1
Incr E (V) = 0.004
Amplitude (V) = 0.05
Pulse Width (sec) = 0.05
Sample Width (sec) = 0.0167
Pulse Period (sec) = 0.5
Quiet Time (sec) = 2
Sensitivity (A/V) = 0.01

Results:

Channel 1:
Ep = 0.508V
ip = 3.905e-5A
Ap = 6.897e-6VA

Potential/V, Current/A

0.004, 9.865e-6
0.008, 9.159e-6
0.012, 8.735e-6
0.016, 8.217e-6
0.020, 7.993e-6
0.024, 7.664e-6
0.028, 7.581e-6
0.032, 7.216e-6
0.036, 7.028e-6
0.040, 6.863e-6
0.044, 6.663e-6
0.048, 6.310e-6
0.052, 6.204e-6
0.056, 5.862e-6
0.060, 5.827e-6
0.064, 5.651e-6
0.068, 5.380e-6
0.072, 5.286e-6
0.076, 5.215e-6
0.080, 5.168e-6
0.084, 4.909e-6
0.088, 4.850e-6
0.092, 4.756e-6
0.096, 4.615e-6
0.100, 4.626e-6
0.104, 4.367e-6
0.108, 4.450e-6
0.112, 4.261e-6
0.116, 4.238e-6
0.120, 3.991e-6
0.124, 4.144e-6
0.128, 3.897e-6
0.132, 3.838e-6
0.136, 3.743e-6
0.140, 3.885e-6
0.144, 3.696e-6
0.148, 3.661e-6
0.152, 3.496e-6
0.156, 3.508e-6
0.160, 3.543e-6
0.164, 3.320e-6
0.168, 3.284e-6
0.172, 3.449e-6
0.176, 3.308e-6
0.180, 3.237e-6
0.184, 3.084e-6
0.188, 3.167e-6
0.192, 3.155e-6
0.196, 3.178e-6
0.200, 3.096e-6
0.204, 3.002e-6
0.208, 2.990e-6
0.212, 2.943e-6
0.216, 2.790e-6
0.220, 2.825e-6
0.224, 2.872e-6
0.228, 2.672e-6
0.232, 2.778e-6
0.236, 2.872e-6
0.240, 2.719e-6
0.244, 2.684e-6
0.248, 2.613e-6
0.252, 2.719e-6
0.256, 2.613e-6
0.260, 2.484e-6
0.264, 2.613e-6
0.268, 2.602e-6
0.272, 2.484e-6
0.276, 2.413e-6
0.280, 2.472e-6
0.284, 2.366e-6
0.288, 2.519e-6
0.292, 2.401e-6
0.296, 2.437e-6
0.300, 2.366e-6
0.304, 2.131e-6
0.308, 2.307e-6
0.312, 2.201e-6
0.316, 2.225e-6
0.320, 2.037e-6
0.324, 2.248e-6
0.328, 2.225e-6
0.332, 2.178e-6
0.336, 2.178e-6
0.340, 2.154e-6
0.344, 2.166e-6
0.348, 2.331e-6
0.352, 2.331e-6
0.356, 2.190e-6
0.360, 2.237e-6
0.364, 2.260e-6
0.368, 2.449e-6
0.372, 2.602e-6
0.376, 2.613e-6
0.380, 3.014e-6
0.384, 3.331e-6
0.388, 3.343e-6
0.392, 3.885e-6
0.396, 4.391e-6
0.400, 4.779e-6
0.404, 5.698e-6
0.408, 6.581e-6
0.412, 7.840e-6
0.416, 9.253e-6
0.420, 1.088e-5
0.424, 1.311e-5
0.428, 1.557e-5
0.432, 1.826e-5
0.436, 2.142e-5
0.440, 2.430e-5
0.444, 2.758e-5
0.448, 3.056e-5
0.452, 3.336e-5
0.456, 3.555e-5
0.460, 3.726e-5
0.464, 3.818e-5
0.468, 3.917e-5
0.472, 3.957e-5
0.476, 4.083e-5
0.480, 4.161e-5
0.484, 4.266e-5
0.488, 4.364e-5
0.492, 4.442e-5
0.496, 4.500e-5
0.500, 4.571e-5
0.504, 4.588e-5
0.508, 4.631e-5
0.512, 4.602e-5
0.516, 4.530e-5
0.520, 4.411e-5
0.524, 4.310e-5
0.528, 4.223e-5
0.532, 4.151e-5
0.536, 4.087e-5
0.540, 4.033e-5
0.544, 4.044e-5
0.548, 3.981e-5
0.552, 3.995e-5
0.556, 3.986e-5
0.560, 3.978e-5
0.564, 3.954e-5
0.568, 3.918e-5
0.572, 3.897e-5
0.576, 3.838e-5
0.580, 3.767e-5
0.584, 3.719e-5
0.588, 3.640e-5
0.592, 3.554e-5
0.596, 3.488e-5
0.600, 3.379e-5
0.604, 3.296e-5
0.608, 3.200e-5
0.612, 3.115e-5
0.616, 3.035e-5
0.620, 2.945e-5
0.624, 2.858e-5
0.628, 2.785e-5
0.632, 2.686e-5
0.636, 2.626e-5
0.640, 2.566e-5
0.644, 2.480e-5
0.648, 2.424e-5
0.652, 2.358e-5
0.656, 2.307e-5
0.660, 2.261e-5
0.664, 2.204e-5
0.668, 2.157e-5
0.672, 2.110e-5
0.676, 2.048e-5
0.680, 2.012e-5
0.684, 1.973e-5
0.688, 1.936e-5
0.692, 1.892e-5
0.696, 1.847e-5
0.700, 1.832e-5
0.704, 1.783e-5
0.708, 1.746e-5
0.712, 1.718e-5
0.716, 1.682e-5
0.720, 1.642e-5
0.724, 1.613e-5
0.728, 1.576e-5
0.732, 1.541e-5
0.736, 1.513e-5
0.740, 1.479e-5
0.744, 1.444e-5
0.748, 1.420e-5
0.752, 1.391e-5
0.756, 1.366e-5
0.760, 1.327e-5
0.764, 1.297e-5
0.768, 1.267e-5
0.772, 1.251e-5
0.776, 1.234e-5
0.780, 1.211e-5
0.784, 1.192e-5
0.788, 1.161e-5
0.792, 1.149e-5
0.796, 1.111e-5
0.800, 1.109e-5
0.804, 1.095e-5
0.808, 1.089e-5
0.812, 1.067e-5
0.816, 1.048e-5
0.820, 1.018e-5
0.824, 1.015e-5
0.828, 1.005e-5
0.832, 9.865e-6
0.836, 9.712e-6
0.840, 9.677e-6
0.844, 9.582e-6
0.848, 9.488e-6
0.852, 9.382e-6
0.856, 9.323e-6
0.860, 9.147e-6
0.864, 9.241e-6
0.868, 9.112e-6
0.872, 8.947e-6
0.876, 8.994e-6
0.880, 8.876e-6
0.884, 8.817e-6
0.888, 8.688e-6
0.892, 8.641e-6
0.896, 8.711e-6
0.900, 8.535e-6
0.904, 8.641e-6
0.908, 8.629e-6
0.912, 8.558e-6
0.916, 8.652e-6
0.920, 8.476e-6
0.924, 8.723e-6
0.928, 8.582e-6
0.932, 8.488e-6
0.936, 8.523e-6
0.940, 8.570e-6
0.944, 8.652e-6
0.948, 8.629e-6
0.952, 8.464e-6
0.956, 8.546e-6
0.960, 8.688e-6
0.964, 8.582e-6
0.968, 8.805e-6
0.972, 8.829e-6
0.976, 8.911e-6
0.980, 8.841e-6
0.984, 8.735e-6
0.988, 8.888e-6
0.992, 8.923e-6
0.996, 8.853e-6
1.000, 8.853e-6
