July 11, 2025   17:21:27
Differential Pulse Voltammetry
File: e:\Data Source:  Experiment
Instrument Model:  CHI620E
Header: 
Note: 

Init E (V) = 0
Final E (V) = 1
Incr E (V) = 0.004
Amplitude (V) = 0.05
Pulse Width (sec) = 0.05
Sample Width (sec) = 0.0167
Pulse Period (sec) = 0.5
Quiet Time (sec) = 2
Sensitivity (A/V) = 0.01

Results:

Channel 1:
Ep = 0.748V
ip = 1.153e-5A
Ap = 4.967e-7VA

Potential/V, Current/A

0.004, 7.040e-6
0.008, 6.345e-6
0.012, 6.027e-6
0.016, 5.733e-6
0.020, 5.639e-6
0.024, 5.356e-6
0.028, 5.297e-6
0.032, 5.121e-6
0.036, 5.109e-6
0.040, 4.885e-6
0.044, 4.885e-6
0.048, 4.473e-6
0.052, 4.320e-6
0.056, 4.144e-6
0.060, 4.191e-6
0.064, 4.144e-6
0.068, 3.944e-6
0.072, 3.944e-6
0.076, 3.861e-6
0.080, 3.944e-6
0.084, 3.708e-6
0.088, 3.638e-6
0.092, 3.590e-6
0.096, 3.673e-6
0.100, 3.496e-6
0.104, 3.414e-6
0.108, 3.296e-6
0.112, 3.437e-6
0.116, 3.273e-6
0.120, 3.096e-6
0.124, 3.096e-6
0.128, 3.084e-6
0.132, 2.955e-6
0.136, 2.884e-6
0.140, 2.931e-6
0.144, 3.061e-6
0.148, 2.943e-6
0.152, 2.778e-6
0.156, 2.908e-6
0.160, 2.613e-6
0.164, 2.684e-6
0.168, 2.649e-6
0.172, 2.672e-6
0.176, 2.613e-6
0.180, 2.496e-6
0.184, 2.319e-6
0.188, 2.413e-6
0.192, 2.248e-6
0.196, 2.237e-6
0.200, 2.390e-6
0.204, 2.284e-6
0.208, 2.225e-6
0.212, 2.025e-6
0.216, 2.048e-6
0.220, 2.084e-6
0.224, 1.966e-6
0.228, 1.978e-6
0.232, 1.872e-6
0.236, 1.884e-6
0.240, 1.942e-6
0.244, 1.813e-6
0.248, 1.801e-6
0.252, 1.754e-6
0.256, 1.801e-6
0.260, 1.695e-6
0.264, 1.577e-6
0.268, 1.636e-6
0.272, 1.577e-6
0.276, 1.554e-6
0.280, 1.577e-6
0.284, 1.448e-6
0.288, 1.530e-6
0.292, 1.424e-6
0.296, 1.330e-6
0.300, 1.436e-6
0.304, 1.448e-6
0.308, 1.448e-6
0.312, 1.318e-6
0.316, 1.330e-6
0.320, 1.283e-6
0.324, 1.142e-6
0.328, 1.318e-6
0.332, 1.177e-6
0.336, 1.354e-6
0.340, 1.330e-6
0.344, 1.260e-6
0.348, 1.213e-6
0.352, 1.236e-6
0.356, 1.154e-6
0.360, 1.236e-6
0.364, 1.224e-6
0.368, 1.295e-6
0.372, 1.177e-6
0.376, 1.201e-6
0.380, 1.213e-6
0.384, 1.177e-6
0.388, 1.048e-6
0.392, 1.048e-6
0.396, 1.012e-6
0.400, 1.071e-6
0.404, 1.071e-6
0.408, 1.012e-6
0.412, 1.001e-6
0.416, 1.107e-6
0.420, 9.418e-7
0.424, 9.653e-7
0.428, 1.048e-6
0.432, 1.048e-6
0.436, 9.300e-7
0.440, 8.476e-7
0.444, 9.064e-7
0.448, 1.048e-6
0.452, 8.123e-7
0.456, 9.653e-7
0.460, 8.358e-7
0.464, 9.535e-7
0.468, 9.064e-7
0.472, 8.358e-7
0.476, 9.064e-7
0.480, 9.535e-7
0.484, 9.064e-7
0.488, 1.001e-6
0.492, 9.418e-7
0.496, 8.594e-7
0.500, 9.064e-7
0.504, 8.476e-7
0.508, 7.887e-7
0.512, 8.005e-7
0.516, 7.887e-7
0.520, 8.711e-7
0.524, 8.123e-7
0.528, 8.711e-7
0.532, 8.594e-7
0.536, 8.594e-7
0.540, 8.829e-7
0.544, 7.299e-7
0.548, 8.358e-7
0.552, 9.182e-7
0.556, 8.594e-7
0.560, 9.771e-7
0.564, 9.300e-7
0.568, 8.711e-7
0.572, 9.535e-7
0.576, 8.240e-7
0.580, 7.652e-7
0.584, 8.358e-7
0.588, 9.771e-7
0.592, 9.771e-7
0.596, 1.048e-6
0.600, 1.036e-6
0.604, 1.059e-6
0.608, 1.059e-6
0.612, 1.130e-6
0.616, 1.107e-6
0.620, 1.177e-6
0.624, 1.260e-6
0.628, 1.236e-6
0.632, 1.283e-6
0.636, 1.448e-6
0.640, 1.554e-6
0.644, 1.683e-6
0.648, 2.060e-6
0.652, 2.366e-6
0.656, 2.531e-6
0.660, 2.931e-6
0.664, 3.426e-6
0.668, 3.897e-6
0.672, 4.403e-6
0.676, 5.003e-6
0.680, 5.709e-6
0.684, 6.604e-6
0.688, 7.475e-6
0.692, 8.570e-6
0.696, 9.724e-6
0.700, 1.109e-5
0.704, 1.271e-5
0.708, 1.393e-5
0.712, 1.522e-5
0.716, 1.637e-5
0.720, 1.791e-5
0.724, 1.958e-5
0.728, 2.171e-5
0.732, 2.445e-5
0.736, 2.691e-5
0.740, 2.943e-5
0.744, 3.114e-5
0.748, 3.165e-5
0.752, 3.128e-5
0.756, 3.016e-5
0.760, 2.902e-5
0.764, 2.831e-5
0.768, 2.818e-5
0.772, 2.797e-5
0.776, 2.796e-5
0.780, 2.803e-5
0.784, 2.796e-5
0.788, 2.786e-5
0.792, 2.793e-5
0.796, 2.799e-5
0.800, 2.786e-5
0.804, 2.786e-5
0.808, 2.786e-5
0.812, 2.788e-5
0.816, 2.796e-5
0.820, 2.791e-5
0.824, 2.775e-5
0.828, 2.772e-5
0.832, 2.772e-5
0.836, 2.749e-5
0.840, 2.738e-5
0.844, 2.722e-5
0.848, 2.688e-5
0.852, 2.660e-5
0.856, 2.643e-5
0.860, 2.605e-5
0.864, 2.571e-5
0.868, 2.525e-5
0.872, 2.479e-5
0.876, 2.429e-5
0.880, 2.387e-5
0.884, 2.331e-5
0.888, 2.280e-5
0.892, 2.223e-5
0.896, 2.172e-5
0.900, 2.106e-5
0.904, 2.052e-5
0.908, 2.005e-5
0.912, 1.934e-5
0.916, 1.899e-5
0.920, 1.833e-5
0.924, 1.795e-5
0.928, 1.748e-5
0.932, 1.702e-5
0.936, 1.653e-5
0.940, 1.621e-5
0.944, 1.582e-5
0.948, 1.533e-5
0.952, 1.499e-5
0.956, 1.486e-5
0.960, 1.435e-5
0.964, 1.415e-5
0.968, 1.376e-5
0.972, 1.370e-5
0.976, 1.347e-5
0.980, 1.317e-5
0.984, 1.290e-5
0.988, 1.283e-5
0.992, 1.267e-5
0.996, 1.243e-5
1.000, 1.221e-5
