July 12, 2025   21:14:42
Differential Pulse Voltammetry
File: e:\Data Source:  Experiment
Instrument Model:  CHI620E
Header: 
Note: 

Init E (V) = 0
Final E (V) = 1
Incr E (V) = 0.004
Amplitude (V) = 0.05
Pulse Width (sec) = 0.05
Sample Width (sec) = 0.0167
Pulse Period (sec) = 0.5
Quiet Time (sec) = 2
Sensitivity (A/V) = 0.01

Results:

Channel 1:
Ep = 0.660V
ip = 4.087e-5A
Ap = 1.964e-6VA

Potential/V, Current/A

0.004, 7.393e-6
0.008, 7.487e-6
0.012, 7.181e-6
0.016, 6.604e-6
0.020, 6.169e-6
0.024, 5.851e-6
0.028, 5.804e-6
0.032, 5.580e-6
0.036, 5.239e-6
0.040, 5.309e-6
0.044, 5.203e-6
0.048, 5.180e-6
0.052, 5.121e-6
0.056, 5.097e-6
0.060, 5.097e-6
0.064, 5.203e-6
0.068, 4.980e-6
0.072, 5.191e-6
0.076, 5.215e-6
0.080, 5.239e-6
0.084, 5.274e-6
0.088, 5.250e-6
0.092, 5.415e-6
0.096, 5.427e-6
0.100, 5.392e-6
0.104, 5.533e-6
0.108, 5.615e-6
0.112, 5.721e-6
0.116, 5.615e-6
0.120, 5.921e-6
0.124, 5.780e-6
0.128, 5.957e-6
0.132, 5.709e-6
0.136, 6.074e-6
0.140, 6.157e-6
0.144, 6.180e-6
0.148, 6.169e-6
0.152, 6.216e-6
0.156, 6.333e-6
0.160, 6.451e-6
0.164, 6.322e-6
0.168, 6.427e-6
0.172, 6.522e-6
0.176, 6.475e-6
0.180, 6.569e-6
0.184, 6.427e-6
0.188, 6.533e-6
0.192, 6.333e-6
0.196, 6.475e-6
0.200, 6.510e-6
0.204, 6.392e-6
0.208, 6.392e-6
0.212, 6.251e-6
0.216, 6.251e-6
0.220, 6.333e-6
0.224, 6.298e-6
0.228, 6.121e-6
0.232, 6.239e-6
0.236, 6.051e-6
0.240, 6.169e-6
0.244, 5.992e-6
0.248, 5.768e-6
0.252, 5.780e-6
0.256, 5.910e-6
0.260, 5.627e-6
0.264, 5.556e-6
0.268, 5.556e-6
0.272, 5.545e-6
0.276, 5.521e-6
0.280, 5.450e-6
0.284, 5.403e-6
0.288, 5.392e-6
0.292, 5.227e-6
0.296, 5.262e-6
0.300, 5.227e-6
0.304, 5.344e-6
0.308, 5.239e-6
0.312, 4.991e-6
0.316, 5.027e-6
0.320, 4.944e-6
0.324, 5.038e-6
0.328, 4.968e-6
0.332, 4.874e-6
0.336, 4.744e-6
0.340, 4.709e-6
0.344, 4.850e-6
0.348, 4.768e-6
0.352, 4.909e-6
0.356, 4.673e-6
0.360, 4.838e-6
0.364, 4.838e-6
0.368, 4.815e-6
0.372, 4.744e-6
0.376, 4.779e-6
0.380, 4.779e-6
0.384, 4.697e-6
0.388, 4.779e-6
0.392, 4.685e-6
0.396, 4.697e-6
0.400, 4.662e-6
0.404, 4.673e-6
0.408, 4.626e-6
0.412, 4.709e-6
0.416, 4.520e-6
0.420, 4.450e-6
0.424, 4.520e-6
0.428, 4.485e-6
0.432, 4.626e-6
0.436, 4.497e-6
0.440, 4.438e-6
0.444, 4.462e-6
0.448, 4.579e-6
0.452, 4.426e-6
0.456, 4.332e-6
0.460, 4.532e-6
0.464, 4.379e-6
0.468, 4.426e-6
0.472, 4.356e-6
0.476, 4.414e-6
0.480, 4.379e-6
0.484, 4.320e-6
0.488, 4.285e-6
0.492, 4.285e-6
0.496, 4.297e-6
0.500, 4.226e-6
0.504, 4.273e-6
0.508, 4.356e-6
0.512, 4.414e-6
0.516, 4.108e-6
0.520, 4.344e-6
0.524, 4.532e-6
0.528, 4.426e-6
0.532, 4.379e-6
0.536, 4.615e-6
0.540, 4.520e-6
0.544, 4.626e-6
0.548, 4.709e-6
0.552, 4.885e-6
0.556, 5.109e-6
0.560, 5.356e-6
0.564, 5.792e-6
0.568, 6.051e-6
0.572, 6.686e-6
0.576, 7.357e-6
0.580, 8.028e-6
0.584, 9.053e-6
0.588, 1.047e-5
0.592, 1.184e-5
0.596, 1.369e-5
0.600, 1.600e-5
0.604, 1.892e-5
0.608, 2.247e-5
0.612, 2.642e-5
0.616, 3.177e-5
0.620, 3.799e-5
0.624, 4.515e-5
0.628, 5.277e-5
0.632, 6.046e-5
0.636, 6.843e-5
0.640, 7.589e-5
0.644, 8.257e-5
0.648, 8.815e-5
0.652, 9.241e-5
0.656, 9.498e-5
0.660, 9.592e-5
0.664, 9.527e-5
0.668, 9.345e-5
0.672, 9.100e-5
0.676, 8.780e-5
0.680, 8.476e-5
0.684, 8.199e-5
0.688, 7.945e-5
0.692, 7.718e-5
0.696, 7.543e-5
0.700, 7.420e-5
0.704, 7.334e-5
0.708, 7.297e-5
0.712, 7.303e-5
0.716, 7.359e-5
0.720, 7.458e-5
0.724, 7.588e-5
0.728, 7.746e-5
0.732, 7.955e-5
0.736, 8.199e-5
0.740, 8.471e-5
0.744, 8.740e-5
0.748, 9.054e-5
0.752, 9.348e-5
0.756, 9.690e-5
0.760, 1.002e-4
0.764, 1.037e-4
0.768, 1.073e-4
0.772, 1.105e-4
0.776, 1.141e-4
0.780, 1.175e-4
0.784, 1.207e-4
0.788, 1.238e-4
0.792, 1.269e-4
0.796, 1.294e-4
0.800, 1.318e-4
0.804, 1.332e-4
0.808, 1.344e-4
0.812, 1.348e-4
0.816, 1.344e-4
0.820, 1.328e-4
0.824, 1.302e-4
0.828, 1.269e-4
0.832, 1.226e-4
0.836, 1.180e-4
0.840, 1.128e-4
0.844, 1.077e-4
0.848, 1.024e-4
0.852, 9.713e-5
0.856, 9.206e-5
0.860, 8.737e-5
0.864, 8.277e-5
0.868, 7.825e-5
0.872, 7.415e-5
0.876, 7.002e-5
0.880, 6.621e-5
0.884, 6.266e-5
0.888, 5.898e-5
0.892, 5.581e-5
0.896, 5.274e-5
0.900, 4.969e-5
0.904, 4.695e-5
0.908, 4.426e-5
0.912, 4.168e-5
0.916, 3.942e-5
0.920, 3.719e-5
0.924, 3.526e-5
0.928, 3.356e-5
0.932, 3.182e-5
0.936, 3.032e-5
0.940, 2.881e-5
0.944, 2.756e-5
0.948, 2.635e-5
0.952, 2.514e-5
0.956, 2.423e-5
0.960, 2.313e-5
0.964, 2.240e-5
0.968, 2.154e-5
0.972, 2.075e-5
0.976, 2.001e-5
0.980, 1.942e-5
0.984, 1.895e-5
0.988, 1.835e-5
0.992, 1.787e-5
0.996, 1.716e-5
1.000, 1.676e-5
