July 25, 2025   09:45:07
Differential Pulse Voltammetry
File: e:\Data Source:  Experiment
Instrument Model:  CHI620E
Header: 
Note: 

Init E (V) = 0
Final E (V) = 1
Incr E (V) = 0.004
Amplitude (V) = 0.05
Pulse Width (sec) = 0.05
Sample Width (sec) = 0.0167
Pulse Period (sec) = 0.5
Quiet Time (sec) = 2
Sensitivity (A/V) = 0.01

Results:

Channel 1:
Ep = 0.372V
ip = 2.374e-7A
Ap = 1.282e-8VA

Ep = 0.740V
ip = 1.159e-5A
Ap = 1.353e-6VA

Potential/V, Current/A

0.004, 3.143e-6
0.008, 3.025e-6
0.012, 2.931e-6
0.016, 2.743e-6
0.020, 2.613e-6
0.024, 2.625e-6
0.028, 2.531e-6
0.032, 2.472e-6
0.036, 2.366e-6
0.040, 2.343e-6
0.044, 2.190e-6
0.048, 2.296e-6
0.052, 2.142e-6
0.056, 2.025e-6
0.060, 2.178e-6
0.064, 2.025e-6
0.068, 2.048e-6
0.072, 1.919e-6
0.076, 1.989e-6
0.080, 1.848e-6
0.084, 1.789e-6
0.088, 1.848e-6
0.092, 1.836e-6
0.096, 1.707e-6
0.100, 1.742e-6
0.104, 1.730e-6
0.108, 1.766e-6
0.112, 1.660e-6
0.116, 1.613e-6
0.120, 1.483e-6
0.124, 1.566e-6
0.128, 1.648e-6
0.132, 1.377e-6
0.136, 1.460e-6
0.140, 1.389e-6
0.144, 1.389e-6
0.148, 1.530e-6
0.152, 1.401e-6
0.156, 1.460e-6
0.160, 1.483e-6
0.164, 1.283e-6
0.168, 1.318e-6
0.172, 1.483e-6
0.176, 1.424e-6
0.180, 1.307e-6
0.184, 1.201e-6
0.188, 1.436e-6
0.192, 1.213e-6
0.196, 1.248e-6
0.200, 1.107e-6
0.204, 1.165e-6
0.208, 1.283e-6
0.212, 1.177e-6
0.216, 1.095e-6
0.220, 1.107e-6
0.224, 1.201e-6
0.228, 9.535e-7
0.232, 1.071e-6
0.236, 1.165e-6
0.240, 9.653e-7
0.244, 9.535e-7
0.248, 9.771e-7
0.252, 9.888e-7
0.256, 1.012e-6
0.260, 1.001e-6
0.264, 1.048e-6
0.268, 9.888e-7
0.272, 8.829e-7
0.276, 8.947e-7
0.280, 9.064e-7
0.284, 9.888e-7
0.288, 9.535e-7
0.292, 8.711e-7
0.296, 9.771e-7
0.300, 1.071e-6
0.304, 8.240e-7
0.308, 9.888e-7
0.312, 7.181e-7
0.316, 8.829e-7
0.320, 9.182e-7
0.324, 8.476e-7
0.328, 8.358e-7
0.332, 9.888e-7
0.336, 8.594e-7
0.340, 7.887e-7
0.344, 7.063e-7
0.348, 7.299e-7
0.352, 7.534e-7
0.356, 7.299e-7
0.360, 7.770e-7
0.364, 8.594e-7
0.368, 9.418e-7
0.372, 9.771e-7
0.376, 8.594e-7
0.380, 9.535e-7
0.384, 8.711e-7
0.388, 8.476e-7
0.392, 7.770e-7
0.396, 7.299e-7
0.400, 7.887e-7
0.404, 7.534e-7
0.408, 7.534e-7
0.412, 8.947e-7
0.416, 8.476e-7
0.420, 7.416e-7
0.424, 7.652e-7
0.428, 8.358e-7
0.432, 6.475e-7
0.436, 8.358e-7
0.440, 7.652e-7
0.444, 7.652e-7
0.448, 7.770e-7
0.452, 5.886e-7
0.456, 6.828e-7
0.460, 7.534e-7
0.464, 8.358e-7
0.468, 7.770e-7
0.472, 7.887e-7
0.476, 6.828e-7
0.480, 7.534e-7
0.484, 6.592e-7
0.488, 7.416e-7
0.492, 6.592e-7
0.496, 7.887e-7
0.500, 6.592e-7
0.504, 6.592e-7
0.508, 7.181e-7
0.512, 6.828e-7
0.516, 5.886e-7
0.520, 6.004e-7
0.524, 6.357e-7
0.528, 6.121e-7
0.532, 5.533e-7
0.536, 6.710e-7
0.540, 7.299e-7
0.544, 6.945e-7
0.548, 6.239e-7
0.552, 6.475e-7
0.556, 7.534e-7
0.560, 6.239e-7
0.564, 7.652e-7
0.568, 5.415e-7
0.572, 7.534e-7
0.576, 6.710e-7
0.580, 7.887e-7
0.584, 7.416e-7
0.588, 6.710e-7
0.592, 8.358e-7
0.596, 8.123e-7
0.600, 6.592e-7
0.604, 8.240e-7
0.608, 7.181e-7
0.612, 9.182e-7
0.616, 7.181e-7
0.620, 8.358e-7
0.624, 7.063e-7
0.628, 9.064e-7
0.632, 8.947e-7
0.636, 9.182e-7
0.640, 8.711e-7
0.644, 9.771e-7
0.648, 1.059e-6
0.652, 1.201e-6
0.656, 1.154e-6
0.660, 1.189e-6
0.664, 1.213e-6
0.668, 1.448e-6
0.672, 1.672e-6
0.676, 1.954e-6
0.680, 2.166e-6
0.684, 2.825e-6
0.688, 3.520e-6
0.692, 4.509e-6
0.696, 5.639e-6
0.700, 7.016e-6
0.704, 8.064e-6
0.708, 8.605e-6
0.712, 9.041e-6
0.716, 9.406e-6
0.720, 9.877e-6
0.724, 1.094e-5
0.728, 1.202e-5
0.732, 1.360e-5
0.736, 1.444e-5
0.740, 1.471e-5
0.744, 1.446e-5
0.748, 1.396e-5
0.752, 1.337e-5
0.756, 1.278e-5
0.760, 1.215e-5
0.764, 1.162e-5
0.768, 1.136e-5
0.772, 1.108e-5
0.776, 1.104e-5
0.780, 1.076e-5
0.784, 1.067e-5
0.788, 1.057e-5
0.792, 1.037e-5
0.796, 1.042e-5
0.800, 1.030e-5
0.804, 1.021e-5
0.808, 1.008e-5
0.812, 1.003e-5
0.816, 9.971e-6
0.820, 9.841e-6
0.824, 9.512e-6
0.828, 9.618e-6
0.832, 9.535e-6
0.836, 9.524e-6
0.840, 9.488e-6
0.844, 9.512e-6
0.848, 9.359e-6
0.852, 9.111e-6
0.856, 8.982e-6
0.860, 9.100e-6
0.864, 8.958e-6
0.868, 8.888e-6
0.872, 8.841e-6
0.876, 8.723e-6
0.880, 8.605e-6
0.884, 8.523e-6
0.888, 8.452e-6
0.892, 8.464e-6
0.896, 8.382e-6
0.900, 8.193e-6
0.904, 8.111e-6
0.908, 8.111e-6
0.912, 8.076e-6
0.916, 7.864e-6
0.920, 7.993e-6
0.924, 7.875e-6
0.928, 7.758e-6
0.932, 7.746e-6
0.936, 7.746e-6
0.940, 7.581e-6
0.944, 7.569e-6
0.948, 7.605e-6
0.952, 7.511e-6
0.956, 7.428e-6
0.960, 7.346e-6
0.964, 7.299e-6
0.968, 7.146e-6
0.972, 7.204e-6
0.976, 7.193e-6
0.980, 7.263e-6
0.984, 7.322e-6
0.988, 7.169e-6
0.992, 7.240e-6
0.996, 7.169e-6
1.000, 7.369e-6
