July 14, 2025   10:18:20
Differential Pulse Voltammetry
File: e:\Data Source:  Experiment
Instrument Model:  CHI620E
Header: 
Note: 

Init E (V) = 0
Final E (V) = 1
Incr E (V) = 0.004
Amplitude (V) = 0.05
Pulse Width (sec) = 0.05
Sample Width (sec) = 0.0167
Pulse Period (sec) = 0.5
Quiet Time (sec) = 2
Sensitivity (A/V) = 0.01

Results:

Channel 1:
Ep = 0.012V
ip = 1.926e-7A
Ap = 2.614e-8VA

Ep = 0.788V
ip = 4.976e-5A
Ap = 6.519e-6VA

Potential/V, Current/A

0.004, 1.283e-6
0.008, 1.318e-6
0.012, 1.448e-6
0.016, 1.342e-6
0.020, 1.330e-6
0.024, 1.389e-6
0.028, 1.224e-6
0.032, 1.271e-6
0.036, 1.389e-6
0.040, 1.307e-6
0.044, 1.271e-6
0.048, 1.307e-6
0.052, 1.307e-6
0.056, 1.048e-6
0.060, 1.342e-6
0.064, 1.436e-6
0.068, 1.213e-6
0.072, 1.213e-6
0.076, 1.224e-6
0.080, 1.083e-6
0.084, 1.095e-6
0.088, 1.177e-6
0.092, 1.083e-6
0.096, 1.130e-6
0.100, 1.224e-6
0.104, 9.653e-7
0.108, 9.653e-7
0.112, 9.653e-7
0.116, 1.024e-6
0.120, 9.535e-7
0.124, 1.059e-6
0.128, 1.024e-6
0.132, 9.535e-7
0.136, 8.594e-7
0.140, 7.887e-7
0.144, 9.300e-7
0.148, 8.711e-7
0.152, 8.476e-7
0.156, 8.240e-7
0.160, 8.240e-7
0.164, 8.005e-7
0.168, 8.358e-7
0.172, 7.416e-7
0.176, 8.476e-7
0.180, 8.358e-7
0.184, 6.945e-7
0.188, 7.299e-7
0.192, 6.475e-7
0.196, 6.945e-7
0.200, 7.416e-7
0.204, 8.358e-7
0.208, 7.769e-7
0.212, 5.886e-7
0.216, 5.180e-7
0.220, 5.651e-7
0.224, 7.534e-7
0.228, 5.062e-7
0.232, 5.297e-7
0.236, 5.533e-7
0.240, 6.475e-7
0.244, 5.062e-7
0.248, 4.473e-7
0.252, 5.415e-7
0.256, 5.768e-7
0.260, 4.473e-7
0.264, 4.120e-7
0.268, 4.473e-7
0.272, 5.533e-7
0.276, 4.356e-7
0.280, 3.532e-7
0.284, 4.238e-7
0.288, 4.002e-7
0.292, 3.649e-7
0.296, 4.120e-7
0.300, 3.885e-7
0.304, 4.473e-7
0.308, 3.414e-7
0.312, 2.472e-7
0.316, 3.767e-7
0.320, 2.825e-7
0.324, 3.061e-7
0.328, 1.530e-7
0.332, 1.413e-7
0.336, 3.296e-7
0.340, 1.413e-7
0.344, 2.825e-7
0.348, 1.884e-7
0.352, 2.708e-7
0.356, 2.119e-7
0.360, 2.472e-7
0.364, 3.178e-7
0.368, 2.001e-7
0.372, 2.708e-7
0.376, 2.001e-7
0.380, 2.354e-7
0.384, 1.295e-7
0.388, 2.237e-7
0.392, 2.237e-7
0.396, 3.414e-7
0.400, 2.708e-7
0.404, 2.354e-7
0.408, 3.061e-7
0.412, 3.885e-7
0.416, 2.119e-7
0.420, 1.648e-7
0.424, 2.001e-7
0.428, 2.943e-7
0.432, 1.295e-7
0.436, 2.001e-7
0.440, 1.648e-7
0.444, 1.883e-7
0.448, 9.417e-8
0.452, 1.766e-7
0.456, 2.237e-7
0.460, 2.237e-7
0.464, 3.296e-7
0.468, 1.648e-7
0.472, 1.884e-7
0.476, 2.590e-7
0.480, 2.825e-7
0.484, 2.119e-7
0.488, 2.354e-7
0.492, 2.472e-7
0.496, 3.178e-7
0.500, 1.884e-7
0.504, 2.708e-7
0.508, 4.238e-7
0.512, 2.119e-7
0.516, 1.884e-7
0.520, 3.296e-7
0.524, 3.767e-7
0.528, 3.649e-7
0.532, 2.354e-7
0.536, 2.119e-7
0.540, 2.943e-7
0.544, 3.767e-7
0.548, 3.532e-7
0.552, 2.943e-7
0.556, 2.354e-7
0.560, 4.002e-7
0.564, 3.178e-7
0.568, 2.708e-7
0.572, 4.238e-7
0.576, 4.944e-7
0.580, 3.061e-7
0.584, 4.591e-7
0.588, 4.356e-7
0.592, 5.533e-7
0.596, 5.297e-7
0.600, 3.649e-7
0.604, 6.121e-7
0.608, 6.475e-7
0.612, 5.651e-7
0.616, 6.475e-7
0.620, 4.827e-7
0.624, 5.533e-7
0.628, 4.826e-7
0.632, 4.709e-7
0.636, 6.121e-7
0.640, 6.828e-7
0.644, 5.533e-7
0.648, 5.415e-7
0.652, 6.004e-7
0.656, 6.121e-7
0.660, 6.475e-7
0.664, 7.299e-7
0.668, 7.887e-7
0.672, 8.711e-7
0.676, 8.829e-7
0.680, 9.300e-7
0.684, 1.024e-6
0.688, 1.036e-6
0.692, 1.224e-6
0.696, 1.307e-6
0.700, 1.648e-6
0.704, 1.907e-6
0.708, 2.178e-6
0.712, 2.708e-6
0.716, 3.390e-6
0.720, 3.991e-6
0.724, 5.074e-6
0.728, 6.145e-6
0.732, 7.687e-6
0.736, 9.488e-6
0.740, 1.175e-5
0.744, 1.443e-5
0.748, 1.747e-5
0.752, 2.115e-5
0.756, 2.607e-5
0.760, 3.124e-5
0.764, 3.701e-5
0.768, 4.272e-5
0.772, 4.801e-5
0.776, 5.283e-5
0.780, 5.631e-5
0.784, 5.827e-5
0.788, 5.875e-5
0.792, 5.862e-5
0.796, 5.814e-5
0.800, 5.786e-5
0.804, 5.724e-5
0.808, 5.667e-5
0.812, 5.589e-5
0.816, 5.507e-5
0.820, 5.426e-5
0.824, 5.310e-5
0.828, 5.241e-5
0.832, 5.130e-5
0.836, 5.031e-5
0.840, 4.923e-5
0.844, 4.829e-5
0.848, 4.730e-5
0.852, 4.643e-5
0.856, 4.555e-5
0.860, 4.471e-5
0.864, 4.392e-5
0.868, 4.317e-5
0.872, 4.232e-5
0.876, 4.154e-5
0.880, 4.085e-5
0.884, 4.010e-5
0.888, 3.925e-5
0.892, 3.851e-5
0.896, 3.769e-5
0.900, 3.678e-5
0.904, 3.608e-5
0.908, 3.545e-5
0.912, 3.452e-5
0.916, 3.380e-5
0.920, 3.286e-5
0.924, 3.216e-5
0.928, 3.140e-5
0.932, 3.040e-5
0.936, 2.967e-5
0.940, 2.911e-5
0.944, 2.834e-5
0.948, 2.745e-5
0.952, 2.676e-5
0.956, 2.615e-5
0.960, 2.552e-5
0.964, 2.476e-5
0.968, 2.419e-5
0.972, 2.370e-5
0.976, 2.307e-5
0.980, 2.256e-5
0.984, 2.206e-5
0.988, 2.155e-5
0.992, 2.100e-5
0.996, 2.062e-5
1.000, 2.027e-5
