July 14, 2025   10:27:00
Differential Pulse Voltammetry
File: e:\Data Source:  Experiment
Instrument Model:  CHI620E
Header: 
Note: 

Init E (V) = 0
Final E (V) = 1
Incr E (V) = 0.004
Amplitude (V) = 0.05
Pulse Width (sec) = 0.05
Sample Width (sec) = 0.0167
Pulse Period (sec) = 0.5
Quiet Time (sec) = 2
Sensitivity (A/V) = 0.01

Results:

Channel 1:
Ep = 0.776V
ip = 4.604e-5A
Ap = 7.219e-6VA

Potential/V, Current/A

0.004, 9.053e-6
0.008, 7.970e-6
0.012, 7.240e-6
0.016, 6.698e-6
0.020, 6.322e-6
0.024, 6.039e-6
0.028, 6.063e-6
0.032, 5.745e-6
0.036, 5.580e-6
0.040, 5.392e-6
0.044, 5.262e-6
0.048, 5.050e-6
0.052, 5.038e-6
0.056, 4.685e-6
0.060, 4.815e-6
0.064, 4.556e-6
0.068, 4.356e-6
0.072, 4.167e-6
0.076, 4.203e-6
0.080, 4.167e-6
0.084, 4.038e-6
0.088, 3.885e-6
0.092, 3.991e-6
0.096, 3.897e-6
0.100, 3.638e-6
0.104, 3.685e-6
0.108, 3.696e-6
0.112, 3.461e-6
0.116, 3.367e-6
0.120, 3.390e-6
0.124, 3.414e-6
0.128, 3.261e-6
0.132, 3.143e-6
0.136, 3.120e-6
0.140, 3.143e-6
0.144, 2.990e-6
0.148, 2.896e-6
0.152, 2.861e-6
0.156, 2.837e-6
0.160, 2.943e-6
0.164, 2.660e-6
0.168, 2.696e-6
0.172, 2.814e-6
0.176, 2.519e-6
0.180, 2.578e-6
0.184, 2.496e-6
0.188, 2.543e-6
0.192, 2.460e-6
0.196, 2.354e-6
0.200, 2.260e-6
0.204, 2.296e-6
0.208, 2.260e-6
0.212, 2.190e-6
0.216, 2.084e-6
0.220, 2.095e-6
0.224, 2.013e-6
0.228, 1.872e-6
0.232, 1.966e-6
0.236, 1.978e-6
0.240, 1.895e-6
0.244, 1.742e-6
0.248, 1.566e-6
0.252, 1.789e-6
0.256, 1.860e-6
0.260, 1.519e-6
0.264, 1.660e-6
0.268, 1.660e-6
0.272, 1.530e-6
0.276, 1.471e-6
0.280, 1.625e-6
0.284, 1.483e-6
0.288, 1.613e-6
0.292, 1.471e-6
0.296, 1.424e-6
0.300, 1.448e-6
0.304, 1.318e-6
0.308, 1.295e-6
0.312, 1.354e-6
0.316, 1.401e-6
0.320, 1.366e-6
0.324, 1.224e-6
0.328, 1.201e-6
0.332, 1.271e-6
0.336, 1.154e-6
0.340, 1.213e-6
0.344, 1.107e-6
0.348, 1.165e-6
0.352, 1.236e-6
0.356, 1.213e-6
0.360, 1.118e-6
0.364, 1.307e-6
0.368, 1.260e-6
0.372, 1.307e-6
0.376, 1.071e-6
0.380, 1.377e-6
0.384, 1.271e-6
0.388, 1.107e-6
0.392, 1.201e-6
0.396, 1.283e-6
0.400, 1.165e-6
0.404, 1.177e-6
0.408, 1.012e-6
0.412, 1.177e-6
0.416, 1.001e-6
0.420, 1.036e-6
0.424, 1.118e-6
0.428, 1.130e-6
0.432, 9.653e-7
0.436, 1.130e-6
0.440, 9.888e-7
0.444, 1.024e-6
0.448, 1.036e-6
0.452, 8.947e-7
0.456, 9.418e-7
0.460, 8.947e-7
0.464, 8.947e-7
0.468, 9.771e-7
0.472, 8.947e-7
0.476, 1.001e-6
0.480, 9.771e-7
0.484, 1.012e-6
0.488, 8.476e-7
0.492, 1.001e-6
0.496, 8.829e-7
0.500, 8.593e-7
0.504, 8.123e-7
0.508, 1.048e-6
0.512, 9.300e-7
0.516, 8.005e-7
0.520, 8.476e-7
0.524, 8.947e-7
0.528, 8.593e-7
0.532, 9.300e-7
0.536, 8.829e-7
0.540, 8.711e-7
0.544, 8.711e-7
0.548, 7.299e-7
0.552, 9.535e-7
0.556, 8.594e-7
0.560, 9.182e-7
0.564, 8.829e-7
0.568, 7.887e-7
0.572, 8.123e-7
0.576, 8.829e-7
0.580, 7.534e-7
0.584, 7.887e-7
0.588, 8.240e-7
0.592, 9.064e-7
0.596, 7.769e-7
0.600, 7.534e-7
0.604, 8.476e-7
0.608, 9.064e-7
0.612, 8.123e-7
0.616, 7.769e-7
0.620, 7.887e-7
0.624, 8.829e-7
0.628, 8.005e-7
0.632, 7.887e-7
0.636, 8.476e-7
0.640, 9.300e-7
0.644, 6.945e-7
0.648, 7.652e-7
0.652, 7.770e-7
0.656, 9.182e-7
0.660, 9.653e-7
0.664, 1.024e-6
0.668, 1.118e-6
0.672, 1.118e-6
0.676, 1.248e-6
0.680, 1.424e-6
0.684, 1.448e-6
0.688, 1.754e-6
0.692, 2.013e-6
0.696, 2.366e-6
0.700, 3.214e-6
0.704, 3.732e-6
0.708, 4.638e-6
0.712, 5.839e-6
0.716, 7.299e-6
0.720, 9.112e-6
0.724, 1.154e-5
0.728, 1.450e-5
0.732, 1.761e-5
0.736, 2.167e-5
0.740, 2.631e-5
0.744, 3.116e-5
0.748, 3.638e-5
0.752, 4.097e-5
0.756, 4.500e-5
0.760, 4.968e-5
0.764, 5.169e-5
0.768, 5.339e-5
0.772, 5.393e-5
0.776, 5.410e-5
0.780, 5.375e-5
0.784, 5.352e-5
0.788, 5.350e-5
0.792, 5.332e-5
0.796, 5.322e-5
0.800, 5.302e-5
0.804, 5.254e-5
0.808, 5.215e-5
0.812, 5.182e-5
0.816, 5.130e-5
0.820, 5.087e-5
0.824, 5.022e-5
0.828, 4.976e-5
0.832, 4.934e-5
0.836, 4.872e-5
0.840, 4.829e-5
0.844, 4.790e-5
0.848, 4.744e-5
0.852, 4.676e-5
0.856, 4.637e-5
0.860, 4.589e-5
0.864, 4.527e-5
0.868, 4.470e-5
0.872, 4.404e-5
0.876, 4.357e-5
0.880, 4.290e-5
0.884, 4.205e-5
0.888, 4.131e-5
0.892, 4.053e-5
0.896, 3.971e-5
0.900, 3.892e-5
0.904, 3.809e-5
0.908, 3.711e-5
0.912, 3.639e-5
0.916, 3.550e-5
0.920, 3.449e-5
0.924, 3.363e-5
0.928, 3.257e-5
0.932, 3.173e-5
0.936, 3.089e-5
0.940, 3.005e-5
0.944, 2.915e-5
0.948, 2.846e-5
0.952, 2.762e-5
0.956, 2.702e-5
0.960, 2.609e-5
0.964, 2.544e-5
0.968, 2.465e-5
0.972, 2.407e-5
0.976, 2.353e-5
0.980, 2.286e-5
0.984, 2.244e-5
0.988, 2.190e-5
0.992, 2.142e-5
0.996, 2.084e-5
1.000, 2.058e-5
