July 21, 2025   22:13:37
Differential Pulse Voltammetry
File: e:\Data Source:  Experiment
Instrument Model:  CHI620E
Header: 
Note: 

Init E (V) = 0
Final E (V) = 1
Incr E (V) = 0.004
Amplitude (V) = 0.05
Pulse Width (sec) = 0.05
Sample Width (sec) = 0.0167
Pulse Period (sec) = 0.5
Quiet Time (sec) = 2
Sensitivity (A/V) = 0.01

Results:

Channel 1:
Ep = 0.588V
ip = 1.614e-5A
Ap = 9.888e-7VA

Potential/V, Current/A

0.004, 4.403e-6
0.008, 4.108e-6
0.012, 3.743e-6
0.016, 3.532e-6
0.020, 3.343e-6
0.024, 3.167e-6
0.028, 3.037e-6
0.032, 3.049e-6
0.036, 2.837e-6
0.040, 2.872e-6
0.044, 2.613e-6
0.048, 2.625e-6
0.052, 2.566e-6
0.056, 2.331e-6
0.060, 2.319e-6
0.064, 2.460e-6
0.068, 2.131e-6
0.072, 2.142e-6
0.076, 2.048e-6
0.080, 2.037e-6
0.084, 2.119e-6
0.088, 1.919e-6
0.092, 1.907e-6
0.096, 1.966e-6
0.100, 1.801e-6
0.104, 1.742e-6
0.108, 1.789e-6
0.112, 1.601e-6
0.116, 1.683e-6
0.120, 1.507e-6
0.124, 1.566e-6
0.128, 1.519e-6
0.132, 1.519e-6
0.136, 1.424e-6
0.140, 1.460e-6
0.144, 1.413e-6
0.148, 1.377e-6
0.152, 1.366e-6
0.156, 1.377e-6
0.160, 1.377e-6
0.164, 1.260e-6
0.168, 1.260e-6
0.172, 1.424e-6
0.176, 1.271e-6
0.180, 1.318e-6
0.184, 1.260e-6
0.188, 1.307e-6
0.192, 1.260e-6
0.196, 1.213e-6
0.200, 1.118e-6
0.204, 1.095e-6
0.208, 1.295e-6
0.212, 1.024e-6
0.216, 1.154e-6
0.220, 1.177e-6
0.224, 1.095e-6
0.228, 1.059e-6
0.232, 1.001e-6
0.236, 1.107e-6
0.240, 1.059e-6
0.244, 1.001e-6
0.248, 1.001e-6
0.252, 1.048e-6
0.256, 1.048e-6
0.260, 9.771e-7
0.264, 1.083e-6
0.268, 1.107e-6
0.272, 1.071e-6
0.276, 9.535e-7
0.280, 9.064e-7
0.284, 1.036e-6
0.288, 9.653e-7
0.292, 8.829e-7
0.296, 8.947e-7
0.300, 1.024e-6
0.304, 1.036e-6
0.308, 8.476e-7
0.312, 8.476e-7
0.316, 1.107e-6
0.320, 8.829e-7
0.324, 8.358e-7
0.328, 8.476e-7
0.332, 8.829e-7
0.336, 9.535e-7
0.340, 9.064e-7
0.344, 9.300e-7
0.348, 9.771e-7
0.352, 8.947e-7
0.356, 9.182e-7
0.360, 8.476e-7
0.364, 8.947e-7
0.368, 9.771e-7
0.372, 8.829e-7
0.376, 9.182e-7
0.380, 9.888e-7
0.384, 9.771e-7
0.388, 8.240e-7
0.392, 1.036e-6
0.396, 1.001e-6
0.400, 9.653e-7
0.404, 9.418e-7
0.408, 9.535e-7
0.412, 8.358e-7
0.416, 8.947e-7
0.420, 7.770e-7
0.424, 9.771e-7
0.428, 8.711e-7
0.432, 1.083e-6
0.436, 8.711e-7
0.440, 8.240e-7
0.444, 9.418e-7
0.448, 9.418e-7
0.452, 9.535e-7
0.456, 1.012e-6
0.460, 1.201e-6
0.464, 1.283e-6
0.468, 1.307e-6
0.472, 1.283e-6
0.476, 1.413e-6
0.480, 1.519e-6
0.484, 1.730e-6
0.488, 1.919e-6
0.492, 2.343e-6
0.496, 2.766e-6
0.500, 3.061e-6
0.504, 3.508e-6
0.508, 3.967e-6
0.512, 4.403e-6
0.516, 4.791e-6
0.520, 5.333e-6
0.524, 5.780e-6
0.528, 6.451e-6
0.532, 6.922e-6
0.536, 7.605e-6
0.540, 8.240e-6
0.544, 8.970e-6
0.548, 9.759e-6
0.552, 1.088e-5
0.556, 1.185e-5
0.560, 1.328e-5
0.564, 1.489e-5
0.568, 1.662e-5
0.572, 1.887e-5
0.576, 2.075e-5
0.580, 2.293e-5
0.584, 2.504e-5
0.588, 2.632e-5
0.592, 2.563e-5
0.596, 2.464e-5
0.600, 2.352e-5
0.604, 2.266e-5
0.608, 2.186e-5
0.612, 2.117e-5
0.616, 2.048e-5
0.620, 2.005e-5
0.624, 1.958e-5
0.628, 1.925e-5
0.632, 1.867e-5
0.636, 1.848e-5
0.640, 1.812e-5
0.644, 1.789e-5
0.648, 1.778e-5
0.652, 1.741e-5
0.656, 1.738e-5
0.660, 1.701e-5
0.664, 1.690e-5
0.668, 1.682e-5
0.672, 1.679e-5
0.676, 1.665e-5
0.680, 1.670e-5
0.684, 1.646e-5
0.688, 1.636e-5
0.692, 1.629e-5
0.696, 1.621e-5
0.700, 1.623e-5
0.704, 1.619e-5
0.708, 1.610e-5
0.712, 1.612e-5
0.716, 1.612e-5
0.720, 1.583e-5
0.724, 1.569e-5
0.728, 1.549e-5
0.732, 1.536e-5
0.736, 1.516e-5
0.740, 1.489e-5
0.744, 1.494e-5
0.748, 1.464e-5
0.752, 1.427e-5
0.756, 1.408e-5
0.760, 1.383e-5
0.764, 1.361e-5
0.768, 1.340e-5
0.772, 1.309e-5
0.776, 1.282e-5
0.780, 1.269e-5
0.784, 1.234e-5
0.788, 1.215e-5
0.792, 1.181e-5
0.796, 1.169e-5
0.800, 1.142e-5
0.804, 1.111e-5
0.808, 1.091e-5
0.812, 1.087e-5
0.816, 1.056e-5
0.820, 1.045e-5
0.824, 1.003e-5
0.828, 9.900e-6
0.832, 9.865e-6
0.836, 9.582e-6
0.840, 9.535e-6
0.844, 9.359e-6
0.848, 9.217e-6
0.852, 9.159e-6
0.856, 9.041e-6
0.860, 8.935e-6
0.864, 8.911e-6
0.868, 8.770e-6
0.872, 8.817e-6
0.876, 8.535e-6
0.880, 8.605e-6
0.884, 8.535e-6
0.888, 8.240e-6
0.892, 8.335e-6
0.896, 8.417e-6
0.900, 8.264e-6
0.904, 8.217e-6
0.908, 8.276e-6
0.912, 8.264e-6
0.916, 8.299e-6
0.920, 8.287e-6
0.924, 8.335e-6
0.928, 8.370e-6
0.932, 8.287e-6
0.936, 8.429e-6
0.940, 8.382e-6
0.944, 8.393e-6
0.948, 8.299e-6
0.952, 8.405e-6
0.956, 8.617e-6
0.960, 8.546e-6
0.964, 8.582e-6
0.968, 8.711e-6
0.972, 8.664e-6
0.976, 8.723e-6
0.980, 8.853e-6
0.984, 8.888e-6
0.988, 8.935e-6
0.992, 8.935e-6
0.996, 8.923e-6
1.000, 8.947e-6
