July 21, 2025   21:41:43
Differential Pulse Voltammetry
File: e:\Data Source:  Experiment
Instrument Model:  CHI620E
Header: 
Note: 

Init E (V) = 0
Final E (V) = 1
Incr E (V) = 0.004
Amplitude (V) = 0.05
Pulse Width (sec) = 0.05
Sample Width (sec) = 0.0167
Pulse Period (sec) = 0.5
Quiet Time (sec) = 2
Sensitivity (A/V) = 0.01

Results:

Channel 1:
Ep = 0.540V
ip = 1.960e-5A
Ap = 1.878e-6VA

Potential/V, Current/A

0.004, 1.017e-5
0.008, 9.665e-6
0.012, 9.123e-6
0.016, 8.711e-6
0.020, 8.405e-6
0.024, 8.064e-6
0.028, 7.899e-6
0.032, 7.711e-6
0.036, 7.487e-6
0.040, 7.028e-6
0.044, 6.792e-6
0.048, 6.475e-6
0.052, 6.357e-6
0.056, 6.063e-6
0.060, 5.862e-6
0.064, 5.780e-6
0.068, 5.509e-6
0.072, 5.462e-6
0.076, 5.227e-6
0.080, 5.027e-6
0.084, 4.956e-6
0.088, 4.779e-6
0.092, 4.603e-6
0.096, 4.532e-6
0.100, 4.450e-6
0.104, 4.332e-6
0.108, 4.179e-6
0.112, 4.120e-6
0.116, 3.944e-6
0.120, 3.791e-6
0.124, 3.743e-6
0.128, 3.743e-6
0.132, 3.532e-6
0.136, 3.532e-6
0.140, 3.508e-6
0.144, 3.485e-6
0.148, 3.426e-6
0.152, 3.261e-6
0.156, 3.226e-6
0.160, 3.226e-6
0.164, 3.049e-6
0.168, 3.120e-6
0.172, 3.226e-6
0.176, 3.108e-6
0.180, 3.014e-6
0.184, 2.837e-6
0.188, 2.884e-6
0.192, 2.978e-6
0.196, 2.755e-6
0.200, 2.790e-6
0.204, 2.743e-6
0.208, 2.743e-6
0.212, 2.613e-6
0.216, 2.413e-6
0.220, 2.578e-6
0.224, 2.519e-6
0.228, 2.413e-6
0.232, 2.319e-6
0.236, 2.331e-6
0.240, 2.366e-6
0.244, 2.237e-6
0.248, 2.307e-6
0.252, 2.201e-6
0.256, 2.237e-6
0.260, 2.025e-6
0.264, 2.119e-6
0.268, 2.025e-6
0.272, 2.013e-6
0.276, 2.201e-6
0.280, 2.048e-6
0.284, 1.884e-6
0.288, 1.848e-6
0.292, 1.954e-6
0.296, 1.813e-6
0.300, 1.742e-6
0.304, 1.942e-6
0.308, 1.895e-6
0.312, 1.601e-6
0.316, 1.813e-6
0.320, 1.813e-6
0.324, 1.648e-6
0.328, 1.613e-6
0.332, 1.695e-6
0.336, 1.566e-6
0.340, 1.495e-6
0.344, 1.613e-6
0.348, 1.577e-6
0.352, 1.636e-6
0.356, 1.566e-6
0.360, 1.460e-6
0.364, 1.566e-6
0.368, 1.589e-6
0.372, 1.460e-6
0.376, 1.566e-6
0.380, 1.401e-6
0.384, 1.589e-6
0.388, 1.554e-6
0.392, 1.648e-6
0.396, 1.695e-6
0.400, 1.672e-6
0.404, 1.730e-6
0.408, 1.954e-6
0.412, 1.848e-6
0.416, 1.978e-6
0.420, 2.013e-6
0.424, 2.142e-6
0.428, 2.225e-6
0.432, 2.590e-6
0.436, 2.743e-6
0.440, 2.837e-6
0.444, 3.261e-6
0.448, 3.508e-6
0.452, 3.944e-6
0.456, 4.379e-6
0.460, 5.133e-6
0.464, 5.709e-6
0.468, 6.416e-6
0.472, 7.310e-6
0.476, 8.299e-6
0.480, 9.500e-6
0.484, 1.081e-5
0.488, 1.236e-5
0.492, 1.415e-5
0.496, 1.585e-5
0.500, 1.773e-5
0.504, 1.925e-5
0.508, 2.117e-5
0.512, 2.281e-5
0.516, 2.426e-5
0.520, 2.593e-5
0.524, 2.716e-5
0.528, 2.819e-5
0.532, 2.870e-5
0.536, 2.896e-5
0.540, 2.915e-5
0.544, 2.910e-5
0.548, 2.844e-5
0.552, 2.765e-5
0.556, 2.673e-5
0.560, 2.598e-5
0.564, 2.532e-5
0.568, 2.478e-5
0.572, 2.433e-5
0.576, 2.394e-5
0.580, 2.323e-5
0.584, 2.279e-5
0.588, 2.225e-5
0.592, 2.161e-5
0.596, 2.087e-5
0.600, 2.048e-5
0.604, 1.988e-5
0.608, 1.961e-5
0.612, 1.908e-5
0.616, 1.861e-5
0.620, 1.832e-5
0.624, 1.812e-5
0.628, 1.782e-5
0.632, 1.742e-5
0.636, 1.730e-5
0.640, 1.722e-5
0.644, 1.688e-5
0.648, 1.674e-5
0.652, 1.657e-5
0.656, 1.675e-5
0.660, 1.656e-5
0.664, 1.648e-5
0.668, 1.647e-5
0.672, 1.633e-5
0.676, 1.616e-5
0.680, 1.637e-5
0.684, 1.610e-5
0.688, 1.613e-5
0.692, 1.609e-5
0.696, 1.585e-5
0.700, 1.589e-5
0.704, 1.569e-5
0.708, 1.547e-5
0.712, 1.535e-5
0.716, 1.533e-5
0.720, 1.501e-5
0.724, 1.492e-5
0.728, 1.460e-5
0.732, 1.448e-5
0.736, 1.422e-5
0.740, 1.399e-5
0.744, 1.383e-5
0.748, 1.361e-5
0.752, 1.338e-5
0.756, 1.315e-5
0.760, 1.275e-5
0.764, 1.255e-5
0.768, 1.223e-5
0.772, 1.200e-5
0.776, 1.194e-5
0.780, 1.162e-5
0.784, 1.157e-5
0.788, 1.132e-5
0.792, 1.091e-5
0.796, 1.097e-5
0.800, 1.061e-5
0.804, 1.036e-5
0.808, 1.035e-5
0.812, 1.016e-5
0.816, 9.936e-6
0.820, 9.830e-6
0.824, 9.629e-6
0.828, 9.677e-6
0.832, 9.476e-6
0.836, 9.241e-6
0.840, 9.229e-6
0.844, 9.217e-6
0.848, 9.076e-6
0.852, 8.935e-6
0.856, 8.935e-6
0.860, 8.853e-6
0.864, 8.605e-6
0.868, 8.652e-6
0.872, 8.629e-6
0.876, 8.523e-6
0.880, 8.488e-6
0.884, 8.558e-6
0.888, 8.523e-6
0.892, 8.429e-6
0.896, 8.558e-6
0.900, 8.464e-6
0.904, 8.440e-6
0.908, 8.535e-6
0.912, 8.393e-6
0.916, 8.417e-6
0.920, 8.370e-6
0.924, 8.464e-6
0.928, 8.488e-6
0.932, 8.476e-6
0.936, 8.570e-6
0.940, 8.594e-6
0.944, 8.617e-6
0.948, 8.676e-6
0.952, 8.735e-6
0.956, 8.758e-6
0.960, 8.911e-6
0.964, 8.876e-6
0.968, 8.770e-6
0.972, 9.041e-6
0.976, 8.947e-6
0.980, 9.053e-6
0.984, 9.088e-6
0.988, 9.123e-6
0.992, 9.182e-6
0.996, 9.112e-6
1.000, 9.300e-6
