July 21, 2025   21:28:52
Differential Pulse Voltammetry
File: e:\Data Source:  Experiment
Instrument Model:  CHI620E
Header: 
Note: 

Init E (V) = 0
Final E (V) = 1
Incr E (V) = 0.004
Amplitude (V) = 0.05
Pulse Width (sec) = 0.05
Sample Width (sec) = 0.0167
Pulse Period (sec) = 0.5
Quiet Time (sec) = 2
Sensitivity (A/V) = 0.01

Results:

Channel 1:
Ep = 0.544V
ip = 1.922e-5A
Ap = 1.567e-6VA

Potential/V, Current/A

0.004, 9.429e-6
0.008, 8.841e-6
0.012, 8.299e-6
0.016, 8.076e-6
0.020, 7.817e-6
0.024, 7.357e-6
0.028, 6.840e-6
0.032, 6.651e-6
0.036, 6.251e-6
0.040, 5.968e-6
0.044, 5.698e-6
0.048, 5.450e-6
0.052, 5.262e-6
0.056, 5.003e-6
0.060, 4.838e-6
0.064, 4.568e-6
0.068, 4.438e-6
0.072, 4.273e-6
0.076, 4.226e-6
0.080, 3.991e-6
0.084, 3.897e-6
0.088, 3.673e-6
0.092, 3.555e-6
0.096, 3.579e-6
0.100, 3.320e-6
0.104, 3.155e-6
0.108, 3.320e-6
0.112, 3.096e-6
0.116, 3.108e-6
0.120, 2.825e-6
0.124, 2.849e-6
0.128, 2.672e-6
0.132, 2.543e-6
0.136, 2.649e-6
0.140, 2.637e-6
0.144, 2.378e-6
0.148, 2.425e-6
0.152, 2.449e-6
0.156, 2.307e-6
0.160, 2.248e-6
0.164, 2.248e-6
0.168, 2.119e-6
0.172, 2.178e-6
0.176, 2.095e-6
0.180, 2.037e-6
0.184, 1.848e-6
0.188, 1.989e-6
0.192, 1.919e-6
0.196, 1.895e-6
0.200, 1.860e-6
0.204, 1.907e-6
0.208, 1.801e-6
0.212, 1.778e-6
0.216, 1.695e-6
0.220, 1.872e-6
0.224, 1.672e-6
0.228, 1.625e-6
0.232, 1.672e-6
0.236, 1.589e-6
0.240, 1.519e-6
0.244, 1.683e-6
0.248, 1.413e-6
0.252, 1.530e-6
0.256, 1.460e-6
0.260, 1.283e-6
0.264, 1.366e-6
0.268, 1.448e-6
0.272, 1.448e-6
0.276, 1.295e-6
0.280, 1.260e-6
0.284, 1.260e-6
0.288, 1.342e-6
0.292, 1.342e-6
0.296, 1.107e-6
0.300, 1.295e-6
0.304, 1.260e-6
0.308, 1.177e-6
0.312, 1.118e-6
0.316, 1.189e-6
0.320, 1.083e-6
0.324, 1.165e-6
0.328, 1.107e-6
0.332, 1.177e-6
0.336, 1.107e-6
0.340, 1.142e-6
0.344, 1.095e-6
0.348, 1.048e-6
0.352, 1.059e-6
0.356, 1.001e-6
0.360, 1.083e-6
0.364, 1.071e-6
0.368, 1.165e-6
0.372, 1.083e-6
0.376, 9.888e-7
0.380, 1.165e-6
0.384, 1.142e-6
0.388, 1.048e-6
0.392, 1.165e-6
0.396, 1.213e-6
0.400, 1.248e-6
0.404, 1.366e-6
0.408, 1.295e-6
0.412, 1.530e-6
0.416, 1.377e-6
0.420, 1.283e-6
0.424, 1.554e-6
0.428, 1.660e-6
0.432, 1.825e-6
0.436, 1.825e-6
0.440, 2.001e-6
0.444, 2.248e-6
0.448, 2.472e-6
0.452, 2.637e-6
0.456, 2.955e-6
0.460, 3.437e-6
0.464, 3.944e-6
0.468, 4.309e-6
0.472, 4.803e-6
0.476, 5.662e-6
0.480, 6.463e-6
0.484, 7.275e-6
0.488, 8.499e-6
0.492, 9.606e-6
0.496, 1.089e-5
0.500, 1.234e-5
0.504, 1.399e-5
0.508, 1.594e-5
0.512, 1.789e-5
0.516, 1.971e-5
0.520, 2.141e-5
0.524, 2.279e-5
0.528, 2.392e-5
0.532, 2.504e-5
0.536, 2.648e-5
0.540, 2.782e-5
0.544, 2.877e-5
0.548, 2.875e-5
0.552, 2.758e-5
0.556, 2.649e-5
0.560, 2.549e-5
0.564, 2.462e-5
0.568, 2.393e-5
0.572, 2.341e-5
0.576, 2.298e-5
0.580, 2.234e-5
0.584, 2.183e-5
0.588, 2.134e-5
0.592, 2.073e-5
0.596, 2.021e-5
0.600, 1.982e-5
0.604, 1.931e-5
0.608, 1.886e-5
0.612, 1.841e-5
0.616, 1.794e-5
0.620, 1.771e-5
0.624, 1.736e-5
0.628, 1.712e-5
0.632, 1.698e-5
0.636, 1.690e-5
0.640, 1.659e-5
0.644, 1.637e-5
0.648, 1.626e-5
0.652, 1.625e-5
0.656, 1.596e-5
0.660, 1.608e-5
0.664, 1.582e-5
0.668, 1.575e-5
0.672, 1.559e-5
0.676, 1.559e-5
0.680, 1.555e-5
0.684, 1.552e-5
0.688, 1.542e-5
0.692, 1.516e-5
0.696, 1.510e-5
0.700, 1.507e-5
0.704, 1.488e-5
0.708, 1.477e-5
0.712, 1.473e-5
0.716, 1.451e-5
0.720, 1.450e-5
0.724, 1.416e-5
0.728, 1.395e-5
0.732, 1.390e-5
0.736, 1.364e-5
0.740, 1.338e-5
0.744, 1.328e-5
0.748, 1.320e-5
0.752, 1.287e-5
0.756, 1.260e-5
0.760, 1.244e-5
0.764, 1.230e-5
0.768, 1.208e-5
0.772, 1.189e-5
0.776, 1.170e-5
0.780, 1.169e-5
0.784, 1.147e-5
0.788, 1.109e-5
0.792, 1.107e-5
0.796, 1.109e-5
0.800, 1.065e-5
0.804, 1.048e-5
0.808, 1.038e-5
0.812, 1.041e-5
0.816, 1.018e-5
0.820, 9.936e-6
0.824, 9.724e-6
0.828, 9.724e-6
0.832, 9.641e-6
0.836, 9.547e-6
0.840, 9.394e-6
0.844, 9.406e-6
0.848, 9.265e-6
0.852, 9.088e-6
0.856, 9.123e-6
0.860, 9.006e-6
0.864, 8.888e-6
0.868, 8.888e-6
0.872, 8.911e-6
0.876, 8.864e-6
0.880, 8.688e-6
0.884, 8.641e-6
0.888, 8.688e-6
0.892, 8.735e-6
0.896, 8.770e-6
0.900, 8.688e-6
0.904, 8.546e-6
0.908, 8.641e-6
0.912, 8.699e-6
0.916, 8.794e-6
0.920, 8.723e-6
0.924, 8.711e-6
0.928, 8.794e-6
0.932, 8.770e-6
0.936, 8.841e-6
0.940, 8.958e-6
0.944, 8.876e-6
0.948, 8.994e-6
0.952, 8.864e-6
0.956, 8.958e-6
0.960, 9.135e-6
0.964, 8.994e-6
0.968, 9.053e-6
0.972, 9.076e-6
0.976, 9.088e-6
0.980, 9.229e-6
0.984, 9.265e-6
0.988, 9.088e-6
0.992, 9.276e-6
0.996, 9.241e-6
1.000, 9.182e-6
