July 15, 2025   15:39:41
Differential Pulse Voltammetry
File: e:\Data Source:  Experiment
Instrument Model:  CHI620E
Header: 
Note: 

Init E (V) = 0
Final E (V) = 1
Incr E (V) = 0.004
Amplitude (V) = 0.05
Pulse Width (sec) = 0.05
Sample Width (sec) = 0.0167
Pulse Period (sec) = 0.5
Quiet Time (sec) = 2
Sensitivity (A/V) = 0.01

Results:

Channel 1:

Potential/V, Current/A

0.004, 2.245e-5
0.008, 2.078e-5
0.012, 1.900e-5
0.016, 1.739e-5
0.020, 1.601e-5
0.024, 1.500e-5
0.028, 1.421e-5
0.032, 1.368e-5
0.036, 1.318e-5
0.040, 1.284e-5
0.044, 1.243e-5
0.048, 1.211e-5
0.052, 1.174e-5
0.056, 1.120e-5
0.060, 1.082e-5
0.064, 1.056e-5
0.068, 1.010e-5
0.072, 9.712e-6
0.076, 9.524e-6
0.080, 9.112e-6
0.084, 8.876e-6
0.088, 8.641e-6
0.092, 8.393e-6
0.096, 9.759e-6
0.100, 8.558e-6
0.104, 8.829e-6
0.108, 7.263e-6
0.112, 7.346e-6
0.116, 6.569e-6
0.120, 6.486e-6
0.124, 6.863e-6
0.128, 7.016e-6
0.132, 6.510e-6
0.136, 6.121e-6
0.140, 6.204e-6
0.144, 5.921e-6
0.148, 5.839e-6
0.152, 5.698e-6
0.156, 5.462e-6
0.160, 5.415e-6
0.164, 5.392e-6
0.168, 5.262e-6
0.172, 5.356e-6
0.176, 5.121e-6
0.180, 5.015e-6
0.184, 4.885e-6
0.188, 4.426e-6
0.192, 5.874e-6
0.196, 4.485e-6
0.200, 4.591e-6
0.204, 4.261e-6
0.208, 4.638e-6
0.212, 4.250e-6
0.216, 3.696e-6
0.220, 4.838e-6
0.224, 4.238e-6
0.228, 4.073e-6
0.232, 4.026e-6
0.236, 4.014e-6
0.240, 4.132e-6
0.244, 4.014e-6
0.248, 4.238e-6
0.252, 4.002e-6
0.256, 3.955e-6
0.260, 3.908e-6
0.264, 3.379e-6
0.268, 3.944e-6
0.272, 3.638e-6
0.276, 3.626e-6
0.280, 3.661e-6
0.284, 3.284e-6
0.288, 3.437e-6
0.292, 3.355e-6
0.296, 3.390e-6
0.300, 3.355e-6
0.304, 3.473e-6
0.308, 3.390e-6
0.312, 3.167e-6
0.316, 3.496e-6
0.320, 3.402e-6
0.324, 3.190e-6
0.328, 3.273e-6
0.332, 3.178e-6
0.336, 3.214e-6
0.340, 3.237e-6
0.344, 3.120e-6
0.348, 3.131e-6
0.352, 3.108e-6
0.356, 3.178e-6
0.360, 3.226e-6
0.364, 3.331e-6
0.368, 3.284e-6
0.372, 3.214e-6
0.376, 3.178e-6
0.380, 3.296e-6
0.384, 3.249e-6
0.388, 3.190e-6
0.392, 3.120e-6
0.396, 3.320e-6
0.400, 3.296e-6
0.404, 3.214e-6
0.408, 3.120e-6
0.412, 3.178e-6
0.416, 3.190e-6
0.420, 3.084e-6
0.424, 3.096e-6
0.428, 3.131e-6
0.432, 3.249e-6
0.436, 3.308e-6
0.440, 3.061e-6
0.444, 3.178e-6
0.448, 3.131e-6
0.452, 3.214e-6
0.456, 3.190e-6
0.460, 3.331e-6
0.464, 3.284e-6
0.468, 3.296e-6
0.472, 3.273e-6
0.476, 3.414e-6
0.480, 3.473e-6
0.484, 3.673e-6
0.488, 3.696e-6
0.492, 3.826e-6
0.496, 3.897e-6
0.500, 4.002e-6
0.504, 4.309e-6
0.508, 4.426e-6
0.512, 4.697e-6
0.516, 5.027e-6
0.520, 5.356e-6
0.524, 5.898e-6
0.528, 6.745e-6
0.532, 7.487e-6
0.536, 8.629e-6
0.540, 9.877e-6
0.544, 1.149e-5
0.548, 1.326e-5
0.552, 1.529e-5
0.556, 1.763e-5
0.560, 2.039e-5
0.564, 2.380e-5
0.568, 2.775e-5
0.572, 3.215e-5
0.576, 3.654e-5
0.580, 4.072e-5
0.584, 4.489e-5
0.588, 4.857e-5
0.592, 5.144e-5
0.596, 5.157e-5
0.600, 5.148e-5
0.604, 5.070e-5
0.608, 4.954e-5
0.612, 4.877e-5
0.616, 4.858e-5
0.620, 4.864e-5
0.624, 4.899e-5
0.628, 4.923e-5
0.632, 4.987e-5
0.636, 5.042e-5
0.640, 5.106e-5
0.644, 5.160e-5
0.648, 5.221e-5
0.652, 5.288e-5
0.656, 5.334e-5
0.660, 5.407e-5
0.664, 5.455e-5
0.668, 5.509e-5
0.672, 5.565e-5
0.676, 5.629e-5
0.680, 5.676e-5
0.684, 5.741e-5
0.688, 5.824e-5
0.692, 5.848e-5
0.696, 5.871e-5
0.700, 5.914e-5
0.704, 5.975e-5
0.708, 5.954e-5
0.712, 5.981e-5
0.716, 6.001e-5
0.720, 5.995e-5
0.724, 5.971e-5
0.728, 5.950e-5
0.732, 5.912e-5
0.736, 5.901e-5
0.740, 5.801e-5
0.744, 5.732e-5
0.748, 5.663e-5
0.752, 5.562e-5
0.756, 5.485e-5
0.760, 5.387e-5
0.764, 5.281e-5
0.768, 5.182e-5
0.772, 5.020e-5
0.776, 4.895e-5
0.780, 4.741e-5
0.784, 4.593e-5
0.788, 4.419e-5
0.792, 4.280e-5
0.796, 4.133e-5
0.800, 3.957e-5
0.804, 3.881e-5
0.808, 3.767e-5
0.812, 3.622e-5
0.816, 3.501e-5
0.820, 3.366e-5
0.824, 3.215e-5
0.828, 3.056e-5
0.832, 2.972e-5
0.836, 2.826e-5
0.840, 2.742e-5
0.844, 2.597e-5
0.848, 2.509e-5
0.852, 2.483e-5
0.856, 2.414e-5
0.860, 2.332e-5
0.864, 2.244e-5
0.868, 2.172e-5
0.872, 2.099e-5
0.876, 2.054e-5
0.880, 2.005e-5
0.884, 1.942e-5
0.888, 1.906e-5
0.892, 1.871e-5
0.896, 1.805e-5
0.900, 1.801e-5
0.904, 1.776e-5
0.908, 1.767e-5
0.912, 1.733e-5
0.916, 1.714e-5
0.920, 1.710e-5
0.924, 1.698e-5
0.928, 1.680e-5
0.932, 1.674e-5
0.936, 1.657e-5
0.940, 1.667e-5
0.944, 1.649e-5
0.948, 1.654e-5
0.952, 1.639e-5
0.956, 1.660e-5
0.960, 1.655e-5
0.964, 1.659e-5
0.968, 1.672e-5
0.972, 1.683e-5
0.976, 1.698e-5
0.980, 1.680e-5
0.984, 1.699e-5
0.988, 1.706e-5
0.992, 1.736e-5
0.996, 1.694e-5
1.000, 1.720e-5
