July 15, 2025   15:35:20
Differential Pulse Voltammetry
File: e:\Data Source:  Experiment
Instrument Model:  CHI620E
Header: 
Note: 

Init E (V) = 0
Final E (V) = 1
Incr E (V) = 0.004
Amplitude (V) = 0.05
Pulse Width (sec) = 0.05
Sample Width (sec) = 0.0167
Pulse Period (sec) = 0.5
Quiet Time (sec) = 2
Sensitivity (A/V) = 0.01

Results:

Channel 1:

Potential/V, Current/A

0.004, 2.231e-5
0.008, 2.064e-5
0.012, 1.880e-5
0.016, 1.714e-5
0.020, 1.572e-5
0.024, 1.493e-5
0.028, 1.411e-5
0.032, 1.363e-5
0.036, 1.313e-5
0.040, 1.276e-5
0.044, 1.244e-5
0.048, 1.208e-5
0.052, 1.167e-5
0.056, 1.127e-5
0.060, 1.105e-5
0.064, 1.045e-5
0.068, 1.054e-5
0.072, 9.912e-6
0.076, 9.700e-6
0.080, 9.453e-6
0.084, 9.123e-6
0.088, 8.864e-6
0.092, 8.429e-6
0.096, 8.370e-6
0.100, 7.887e-6
0.104, 7.934e-6
0.108, 7.522e-6
0.112, 7.463e-6
0.116, 7.204e-6
0.120, 6.898e-6
0.124, 6.851e-6
0.128, 6.651e-6
0.132, 6.392e-6
0.136, 6.322e-6
0.140, 6.192e-6
0.144, 6.074e-6
0.148, 5.851e-6
0.152, 5.686e-6
0.156, 5.580e-6
0.160, 5.615e-6
0.164, 5.568e-6
0.168, 5.356e-6
0.172, 5.215e-6
0.176, 5.085e-6
0.180, 5.144e-6
0.184, 4.827e-6
0.188, 4.827e-6
0.192, 4.932e-6
0.196, 4.803e-6
0.200, 4.673e-6
0.204, 4.556e-6
0.208, 4.638e-6
0.212, 4.391e-6
0.216, 4.250e-6
0.220, 4.285e-6
0.224, 4.309e-6
0.228, 4.226e-6
0.232, 4.226e-6
0.236, 4.167e-6
0.240, 4.108e-6
0.244, 4.061e-6
0.248, 4.026e-6
0.252, 3.967e-6
0.256, 3.944e-6
0.260, 3.791e-6
0.264, 3.685e-6
0.268, 3.791e-6
0.272, 3.885e-6
0.276, 3.755e-6
0.280, 3.743e-6
0.284, 3.649e-6
0.288, 3.743e-6
0.292, 3.626e-6
0.296, 3.638e-6
0.300, 3.661e-6
0.304, 3.602e-6
0.308, 3.590e-6
0.312, 3.473e-6
0.316, 3.414e-6
0.320, 3.602e-6
0.324, 3.426e-6
0.328, 3.461e-6
0.332, 3.437e-6
0.336, 3.402e-6
0.340, 3.320e-6
0.344, 3.355e-6
0.348, 3.355e-6
0.352, 3.261e-6
0.356, 3.261e-6
0.360, 3.190e-6
0.364, 3.308e-6
0.368, 3.261e-6
0.372, 3.284e-6
0.376, 3.178e-6
0.380, 3.308e-6
0.384, 3.261e-6
0.388, 3.143e-6
0.392, 3.167e-6
0.396, 3.167e-6
0.400, 3.379e-6
0.404, 3.143e-6
0.408, 3.190e-6
0.412, 3.249e-6
0.416, 3.226e-6
0.420, 3.108e-6
0.424, 3.120e-6
0.428, 3.096e-6
0.432, 3.355e-6
0.436, 3.120e-6
0.440, 3.120e-6
0.444, 3.214e-6
0.448, 3.355e-6
0.452, 3.237e-6
0.456, 3.308e-6
0.460, 3.390e-6
0.464, 3.355e-6
0.468, 3.496e-6
0.472, 3.484e-6
0.476, 3.555e-6
0.480, 3.614e-6
0.484, 3.708e-6
0.488, 3.861e-6
0.492, 3.861e-6
0.496, 4.226e-6
0.500, 4.403e-6
0.504, 4.497e-6
0.508, 4.838e-6
0.512, 5.344e-6
0.516, 5.780e-6
0.520, 6.369e-6
0.524, 7.287e-6
0.528, 8.488e-6
0.532, 9.700e-6
0.536, 1.144e-5
0.540, 1.311e-5
0.544, 1.548e-5
0.548, 1.799e-5
0.552, 2.094e-5
0.556, 2.458e-5
0.560, 2.866e-5
0.564, 3.264e-5
0.568, 3.652e-5
0.572, 4.054e-5
0.576, 4.477e-5
0.580, 4.868e-5
0.584, 5.141e-5
0.588, 5.257e-5
0.592, 5.221e-5
0.596, 5.074e-5
0.600, 4.927e-5
0.604, 4.885e-5
0.608, 4.862e-5
0.612, 4.903e-5
0.616, 4.938e-5
0.620, 4.981e-5
0.624, 5.043e-5
0.628, 5.110e-5
0.632, 5.182e-5
0.636, 5.231e-5
0.640, 5.315e-5
0.644, 5.380e-5
0.648, 5.442e-5
0.652, 5.506e-5
0.656, 5.600e-5
0.660, 5.667e-5
0.664, 5.701e-5
0.668, 5.808e-5
0.672, 5.837e-5
0.676, 5.906e-5
0.680, 5.955e-5
0.684, 5.985e-5
0.688, 6.025e-5
0.692, 6.052e-5
0.696, 6.057e-5
0.700, 6.051e-5
0.704, 6.040e-5
0.708, 6.026e-5
0.712, 5.991e-5
0.716, 5.979e-5
0.720, 5.924e-5
0.724, 5.878e-5
0.728, 5.808e-5
0.732, 5.749e-5
0.736, 5.674e-5
0.740, 5.566e-5
0.744, 5.463e-5
0.748, 5.329e-5
0.752, 5.206e-5
0.756, 5.055e-5
0.760, 4.914e-5
0.764, 4.768e-5
0.768, 4.636e-5
0.772, 4.485e-5
0.776, 4.358e-5
0.780, 4.212e-5
0.784, 4.080e-5
0.788, 3.932e-5
0.792, 3.778e-5
0.796, 3.652e-5
0.800, 3.507e-5
0.804, 3.364e-5
0.808, 3.241e-5
0.812, 3.128e-5
0.816, 3.014e-5
0.820, 2.918e-5
0.824, 2.790e-5
0.828, 2.718e-5
0.832, 2.636e-5
0.836, 2.525e-5
0.840, 2.451e-5
0.844, 2.384e-5
0.848, 2.303e-5
0.852, 2.227e-5
0.856, 2.163e-5
0.860, 2.104e-5
0.864, 2.052e-5
0.868, 2.007e-5
0.872, 1.968e-5
0.876, 1.919e-5
0.880, 1.891e-5
0.884, 1.847e-5
0.888, 1.820e-5
0.892, 1.800e-5
0.896, 1.773e-5
0.900, 1.748e-5
0.904, 1.749e-5
0.908, 1.727e-5
0.912, 1.696e-5
0.916, 1.698e-5
0.920, 1.681e-5
0.924, 1.673e-5
0.928, 1.668e-5
0.932, 1.667e-5
0.936, 1.666e-5
0.940, 1.663e-5
0.944, 1.659e-5
0.948, 1.662e-5
0.952, 1.672e-5
0.956, 1.662e-5
0.960, 1.679e-5
0.964, 1.689e-5
0.968, 1.702e-5
0.972, 1.702e-5
0.976, 1.708e-5
0.980, 1.715e-5
0.984, 1.732e-5
0.988, 1.734e-5
0.992, 1.746e-5
0.996, 1.756e-5
1.000, 1.767e-5
