July 25, 2025   10:44:19
Differential Pulse Voltammetry
File: e:\Data Source:  Experiment
Instrument Model:  CHI620E
Header: 
Note: 

Init E (V) = 0
Final E (V) = 1
Incr E (V) = 0.004
Amplitude (V) = 0.05
Pulse Width (sec) = 0.05
Sample Width (sec) = 0.0167
Pulse Period (sec) = 0.5
Quiet Time (sec) = 2
Sensitivity (A/V) = 0.01

Results:

Channel 1:
Ep = 0.604V
ip = 1.115e-5A
Ap = 9.803e-7VA

Potential/V, Current/A

0.004, 6.616e-6
0.008, 6.439e-6
0.012, 6.357e-6
0.016, 5.980e-6
0.020, 5.945e-6
0.024, 5.745e-6
0.028, 5.792e-6
0.032, 5.556e-6
0.036, 5.368e-6
0.040, 5.286e-6
0.044, 5.333e-6
0.048, 5.144e-6
0.052, 5.015e-6
0.056, 4.897e-6
0.060, 4.991e-6
0.064, 4.909e-6
0.068, 4.815e-6
0.072, 4.673e-6
0.076, 4.721e-6
0.080, 4.626e-6
0.084, 4.650e-6
0.088, 4.462e-6
0.092, 4.485e-6
0.096, 4.391e-6
0.100, 4.332e-6
0.104, 4.250e-6
0.108, 4.320e-6
0.112, 4.167e-6
0.116, 4.120e-6
0.120, 4.073e-6
0.124, 4.061e-6
0.128, 4.002e-6
0.132, 3.873e-6
0.136, 3.849e-6
0.140, 3.767e-6
0.144, 3.791e-6
0.148, 3.732e-6
0.152, 3.602e-6
0.156, 3.673e-6
0.160, 3.602e-6
0.164, 3.426e-6
0.168, 3.402e-6
0.172, 3.437e-6
0.176, 3.320e-6
0.180, 3.249e-6
0.184, 3.131e-6
0.188, 3.037e-6
0.192, 3.178e-6
0.196, 2.943e-6
0.200, 2.955e-6
0.204, 3.096e-6
0.208, 2.919e-6
0.212, 2.872e-6
0.216, 2.731e-6
0.220, 2.861e-6
0.224, 2.802e-6
0.228, 2.755e-6
0.232, 2.719e-6
0.236, 2.731e-6
0.240, 2.660e-6
0.244, 2.578e-6
0.248, 2.566e-6
0.252, 2.354e-6
0.256, 2.496e-6
0.260, 2.401e-6
0.264, 2.425e-6
0.268, 2.555e-6
0.272, 2.519e-6
0.276, 2.413e-6
0.280, 2.272e-6
0.284, 2.378e-6
0.288, 2.413e-6
0.292, 2.296e-6
0.296, 2.272e-6
0.300, 2.307e-6
0.304, 2.284e-6
0.308, 2.237e-6
0.312, 2.237e-6
0.316, 2.201e-6
0.320, 2.296e-6
0.324, 2.213e-6
0.328, 2.131e-6
0.332, 2.154e-6
0.336, 2.272e-6
0.340, 2.048e-6
0.344, 2.095e-6
0.348, 2.095e-6
0.352, 2.084e-6
0.356, 2.048e-6
0.360, 2.107e-6
0.364, 2.225e-6
0.368, 2.131e-6
0.372, 2.119e-6
0.376, 2.072e-6
0.380, 2.107e-6
0.384, 2.142e-6
0.388, 2.013e-6
0.392, 2.060e-6
0.396, 2.013e-6
0.400, 2.013e-6
0.404, 2.001e-6
0.408, 2.154e-6
0.412, 2.037e-6
0.416, 2.048e-6
0.420, 1.895e-6
0.424, 2.013e-6
0.428, 2.084e-6
0.432, 2.025e-6
0.436, 1.942e-6
0.440, 1.907e-6
0.444, 1.931e-6
0.448, 1.895e-6
0.452, 2.025e-6
0.456, 1.966e-6
0.460, 2.131e-6
0.464, 1.919e-6
0.468, 1.931e-6
0.472, 1.989e-6
0.476, 2.048e-6
0.480, 2.001e-6
0.484, 1.907e-6
0.488, 2.072e-6
0.492, 2.190e-6
0.496, 2.166e-6
0.500, 2.284e-6
0.504, 2.248e-6
0.508, 2.555e-6
0.512, 2.496e-6
0.516, 2.625e-6
0.520, 2.719e-6
0.524, 3.084e-6
0.528, 3.025e-6
0.532, 3.437e-6
0.536, 3.626e-6
0.540, 3.944e-6
0.544, 4.379e-6
0.548, 4.850e-6
0.552, 5.474e-6
0.556, 6.239e-6
0.560, 6.993e-6
0.564, 8.028e-6
0.568, 8.805e-6
0.572, 1.034e-5
0.576, 1.155e-5
0.580, 1.277e-5
0.584, 1.417e-5
0.588, 1.533e-5
0.592, 1.617e-5
0.596, 1.689e-5
0.600, 1.715e-5
0.604, 1.732e-5
0.608, 1.718e-5
0.612, 1.676e-5
0.616, 1.646e-5
0.620, 1.601e-5
0.624, 1.572e-5
0.628, 1.526e-5
0.632, 1.474e-5
0.636, 1.455e-5
0.640, 1.407e-5
0.644, 1.354e-5
0.648, 1.309e-5
0.652, 1.291e-5
0.656, 1.268e-5
0.660, 1.273e-5
0.664, 1.245e-5
0.668, 1.233e-5
0.672, 1.220e-5
0.676, 1.208e-5
0.680, 1.188e-5
0.684, 1.204e-5
0.688, 1.176e-5
0.692, 1.180e-5
0.696, 1.141e-5
0.700, 1.162e-5
0.704, 1.143e-5
0.708, 1.131e-5
0.712, 1.109e-5
0.716, 1.115e-5
0.720, 1.109e-5
0.724, 1.116e-5
0.728, 1.108e-5
0.732, 1.103e-5
0.736, 1.091e-5
0.740, 1.095e-5
0.744, 1.087e-5
0.748, 1.083e-5
0.752, 1.084e-5
0.756, 1.067e-5
0.760, 1.068e-5
0.764, 1.078e-5
0.768, 1.070e-5
0.772, 1.045e-5
0.776, 1.055e-5
0.780, 1.065e-5
0.784, 1.042e-5
0.788, 1.036e-5
0.792, 1.029e-5
0.796, 1.009e-5
0.800, 1.016e-5
0.804, 9.936e-6
0.808, 9.947e-6
0.812, 9.830e-6
0.816, 9.641e-6
0.820, 9.618e-6
0.824, 9.347e-6
0.828, 9.394e-6
0.832, 9.335e-6
0.836, 9.206e-6
0.840, 9.076e-6
0.844, 9.147e-6
0.848, 9.029e-6
0.852, 8.947e-6
0.856, 8.923e-6
0.860, 8.829e-6
0.864, 8.664e-6
0.868, 8.747e-6
0.872, 8.747e-6
0.876, 8.617e-6
0.880, 8.464e-6
0.884, 8.417e-6
0.888, 8.299e-6
0.892, 8.441e-6
0.896, 8.252e-6
0.900, 8.146e-6
0.904, 8.146e-6
0.908, 8.028e-6
0.912, 8.205e-6
0.916, 8.087e-6
0.920, 7.934e-6
0.924, 7.934e-6
0.928, 8.064e-6
0.932, 7.875e-6
0.936, 7.899e-6
0.940, 8.005e-6
0.944, 8.158e-6
0.948, 8.064e-6
0.952, 8.005e-6
0.956, 8.123e-6
0.960, 8.264e-6
0.964, 8.111e-6
0.968, 8.229e-6
0.972, 8.252e-6
0.976, 8.405e-6
0.980, 8.464e-6
0.984, 8.405e-6
0.988, 8.440e-6
0.992, 8.523e-6
0.996, 8.546e-6
1.000, 8.735e-6
