July 15, 2025   13:21:45
Differential Pulse Voltammetry
File: e:\Data Source:  Experiment
Instrument Model:  CHI620E
Header: 
Note: 

Init E (V) = 0
Final E (V) = 1
Incr E (V) = 0.004
Amplitude (V) = 0.05
Pulse Width (sec) = 0.05
Sample Width (sec) = 0.0167
Pulse Period (sec) = 0.5
Quiet Time (sec) = 2
Sensitivity (A/V) = 0.01

Results:

Channel 1:

Potential/V, Current/A

0.004, 1.555e-5
0.008, 1.469e-5
0.012, 1.373e-5
0.016, 1.267e-5
0.020, 1.158e-5
0.024, 1.090e-5
0.028, 1.041e-5
0.032, 9.971e-6
0.036, 9.559e-6
0.040, 9.500e-6
0.044, 9.253e-6
0.048, 9.159e-6
0.052, 9.100e-6
0.056, 8.888e-6
0.060, 8.923e-6
0.064, 8.699e-6
0.068, 8.511e-6
0.072, 8.499e-6
0.076, 8.323e-6
0.080, 8.170e-6
0.084, 7.911e-6
0.088, 7.664e-6
0.092, 7.675e-6
0.096, 7.428e-6
0.100, 7.416e-6
0.104, 7.287e-6
0.108, 7.216e-6
0.112, 7.016e-6
0.116, 6.922e-6
0.120, 6.628e-6
0.124, 6.569e-6
0.128, 6.592e-6
0.132, 6.204e-6
0.136, 6.380e-6
0.140, 6.204e-6
0.144, 6.121e-6
0.148, 5.886e-6
0.152, 5.780e-6
0.156, 5.921e-6
0.160, 5.709e-6
0.164, 5.545e-6
0.168, 5.603e-6
0.172, 5.474e-6
0.176, 5.368e-6
0.180, 5.250e-6
0.184, 5.250e-6
0.188, 5.085e-6
0.192, 4.968e-6
0.196, 4.932e-6
0.200, 4.862e-6
0.204, 4.862e-6
0.208, 4.615e-6
0.212, 4.685e-6
0.216, 4.568e-6
0.220, 4.403e-6
0.224, 4.450e-6
0.228, 4.261e-6
0.232, 4.156e-6
0.236, 4.179e-6
0.240, 4.273e-6
0.244, 4.120e-6
0.248, 3.932e-6
0.252, 4.050e-6
0.256, 3.955e-6
0.260, 3.720e-6
0.264, 3.826e-6
0.268, 3.814e-6
0.272, 3.673e-6
0.276, 3.673e-6
0.280, 3.579e-6
0.284, 3.567e-6
0.288, 3.661e-6
0.292, 3.685e-6
0.296, 3.473e-6
0.300, 3.461e-6
0.304, 3.567e-6
0.308, 3.367e-6
0.312, 3.461e-6
0.316, 3.379e-6
0.320, 3.473e-6
0.324, 3.249e-6
0.328, 3.273e-6
0.332, 3.237e-6
0.336, 3.226e-6
0.340, 3.108e-6
0.344, 3.237e-6
0.348, 3.237e-6
0.352, 3.261e-6
0.356, 3.072e-6
0.360, 3.072e-6
0.364, 3.261e-6
0.368, 3.178e-6
0.372, 3.084e-6
0.376, 3.084e-6
0.380, 3.131e-6
0.384, 3.037e-6
0.388, 3.049e-6
0.392, 2.967e-6
0.396, 3.084e-6
0.400, 3.002e-6
0.404, 3.037e-6
0.408, 2.908e-6
0.412, 2.919e-6
0.416, 2.837e-6
0.420, 2.908e-6
0.424, 2.731e-6
0.428, 2.790e-6
0.432, 2.790e-6
0.436, 2.802e-6
0.440, 2.719e-6
0.444, 2.837e-6
0.448, 2.766e-6
0.452, 2.825e-6
0.456, 2.802e-6
0.460, 2.731e-6
0.464, 2.872e-6
0.468, 2.813e-6
0.472, 2.719e-6
0.476, 2.813e-6
0.480, 2.884e-6
0.484, 2.872e-6
0.488, 2.613e-6
0.492, 2.719e-6
0.496, 2.731e-6
0.500, 2.755e-6
0.504, 2.708e-6
0.508, 2.813e-6
0.512, 2.802e-6
0.516, 2.778e-6
0.520, 2.755e-6
0.524, 2.861e-6
0.528, 2.943e-6
0.532, 2.896e-6
0.536, 2.778e-6
0.540, 3.002e-6
0.544, 2.943e-6
0.548, 2.884e-6
0.552, 3.025e-6
0.556, 3.049e-6
0.560, 3.202e-6
0.564, 3.072e-6
0.568, 3.155e-6
0.572, 3.331e-6
0.576, 3.473e-6
0.580, 3.485e-6
0.584, 3.638e-6
0.588, 3.802e-6
0.592, 4.026e-6
0.596, 4.132e-6
0.600, 4.379e-6
0.604, 4.779e-6
0.608, 5.038e-6
0.612, 5.686e-6
0.616, 6.180e-6
0.620, 7.051e-6
0.624, 8.205e-6
0.628, 9.476e-6
0.632, 1.104e-5
0.636, 1.313e-5
0.640, 1.541e-5
0.644, 1.802e-5
0.648, 2.140e-5
0.652, 2.536e-5
0.656, 3.010e-5
0.660, 3.512e-5
0.664, 4.031e-5
0.668, 4.484e-5
0.672, 4.847e-5
0.676, 5.060e-5
0.680, 5.213e-5
0.684, 5.289e-5
0.688, 5.330e-5
0.692, 5.362e-5
0.696, 5.373e-5
0.700, 5.392e-5
0.704, 5.399e-5
0.708, 5.420e-5
0.712, 5.439e-5
0.716, 5.488e-5
0.720, 5.555e-5
0.724, 5.606e-5
0.728, 5.661e-5
0.732, 5.739e-5
0.736, 5.814e-5
0.740, 5.865e-5
0.744, 5.947e-5
0.748, 6.011e-5
0.752, 6.063e-5
0.756, 6.121e-5
0.760, 6.164e-5
0.764, 6.238e-5
0.768, 6.291e-5
0.772, 6.329e-5
0.776, 6.407e-5
0.780, 6.438e-5
0.784, 6.496e-5
0.788, 6.526e-5
0.792, 6.553e-5
0.796, 6.575e-5
0.800, 6.589e-5
0.804, 6.579e-5
0.808, 6.584e-5
0.812, 6.592e-5
0.816, 6.586e-5
0.820, 6.541e-5
0.824, 6.472e-5
0.828, 6.425e-5
0.832, 6.376e-5
0.836, 6.278e-5
0.840, 6.218e-5
0.844, 6.114e-5
0.848, 6.007e-5
0.852, 5.901e-5
0.856, 5.751e-5
0.860, 5.614e-5
0.864, 5.453e-5
0.868, 5.300e-5
0.872, 5.164e-5
0.876, 4.992e-5
0.880, 4.806e-5
0.884, 4.636e-5
0.888, 4.424e-5
0.892, 4.252e-5
0.896, 4.079e-5
0.900, 3.900e-5
0.904, 3.740e-5
0.908, 3.583e-5
0.912, 3.429e-5
0.916, 3.269e-5
0.920, 3.138e-5
0.924, 3.018e-5
0.928, 2.892e-5
0.932, 2.771e-5
0.936, 2.669e-5
0.940, 2.565e-5
0.944, 2.464e-5
0.948, 2.386e-5
0.952, 2.303e-5
0.956, 2.224e-5
0.960, 2.161e-5
0.964, 2.085e-5
0.968, 2.026e-5
0.972, 1.978e-5
0.976, 1.928e-5
0.980, 1.886e-5
0.984, 1.853e-5
0.988, 1.809e-5
0.992, 1.783e-5
0.996, 1.735e-5
1.000, 1.727e-5
