July 15, 2025   13:23:55
Differential Pulse Voltammetry
File: e:\Data Source:  Experiment
Instrument Model:  CHI620E
Header: 
Note: 

Init E (V) = 0
Final E (V) = 1
Incr E (V) = 0.004
Amplitude (V) = 0.05
Pulse Width (sec) = 0.05
Sample Width (sec) = 0.0167
Pulse Period (sec) = 0.5
Quiet Time (sec) = 2
Sensitivity (A/V) = 0.01

Results:

Channel 1:

Potential/V, Current/A

0.004, 1.562e-5
0.008, 1.479e-5
0.012, 1.374e-5
0.016, 1.240e-5
0.020, 1.154e-5
0.024, 1.088e-5
0.028, 1.036e-5
0.032, 9.936e-6
0.036, 9.665e-6
0.040, 9.535e-6
0.044, 9.394e-6
0.048, 9.194e-6
0.052, 9.147e-6
0.056, 8.841e-6
0.060, 8.853e-6
0.064, 8.440e-6
0.068, 8.382e-6
0.072, 8.276e-6
0.076, 8.146e-6
0.080, 7.758e-6
0.084, 7.699e-6
0.088, 7.593e-6
0.092, 7.381e-6
0.096, 7.228e-6
0.100, 7.051e-6
0.104, 6.922e-6
0.108, 6.828e-6
0.112, 6.745e-6
0.116, 6.651e-6
0.120, 6.239e-6
0.124, 6.427e-6
0.128, 6.380e-6
0.132, 6.051e-6
0.136, 5.992e-6
0.140, 5.980e-6
0.144, 5.898e-6
0.148, 5.827e-6
0.152, 5.603e-6
0.156, 5.686e-6
0.160, 5.474e-6
0.164, 5.403e-6
0.168, 5.439e-6
0.172, 5.392e-6
0.176, 5.168e-6
0.180, 5.074e-6
0.184, 4.944e-6
0.188, 4.956e-6
0.192, 4.921e-6
0.196, 4.815e-6
0.200, 4.650e-6
0.204, 4.532e-6
0.208, 4.485e-6
0.212, 4.497e-6
0.216, 4.403e-6
0.220, 4.356e-6
0.224, 4.403e-6
0.228, 4.214e-6
0.232, 4.144e-6
0.236, 4.108e-6
0.240, 3.955e-6
0.244, 3.802e-6
0.248, 3.838e-6
0.252, 3.908e-6
0.256, 3.767e-6
0.260, 3.649e-6
0.264, 3.673e-6
0.268, 3.755e-6
0.272, 3.543e-6
0.276, 3.461e-6
0.280, 3.426e-6
0.284, 3.426e-6
0.288, 3.355e-6
0.292, 3.402e-6
0.296, 3.320e-6
0.300, 3.308e-6
0.304, 3.379e-6
0.308, 3.273e-6
0.312, 3.108e-6
0.316, 3.131e-6
0.320, 3.025e-6
0.324, 3.084e-6
0.328, 3.143e-6
0.332, 3.025e-6
0.336, 2.967e-6
0.340, 2.978e-6
0.344, 2.884e-6
0.348, 3.049e-6
0.352, 2.931e-6
0.356, 2.908e-6
0.360, 2.872e-6
0.364, 2.896e-6
0.368, 2.967e-6
0.372, 2.931e-6
0.376, 2.813e-6
0.380, 2.778e-6
0.384, 2.778e-6
0.388, 2.814e-6
0.392, 2.708e-6
0.396, 2.908e-6
0.400, 2.672e-6
0.404, 2.696e-6
0.408, 2.672e-6
0.412, 2.719e-6
0.416, 2.625e-6
0.420, 2.649e-6
0.424, 2.625e-6
0.428, 2.625e-6
0.432, 2.625e-6
0.436, 2.543e-6
0.440, 2.496e-6
0.444, 2.590e-6
0.448, 2.613e-6
0.452, 2.507e-6
0.456, 2.496e-6
0.460, 2.555e-6
0.464, 2.555e-6
0.468, 2.543e-6
0.472, 2.449e-6
0.476, 2.413e-6
0.480, 2.507e-6
0.484, 2.484e-6
0.488, 2.496e-6
0.492, 2.413e-6
0.496, 2.437e-6
0.500, 2.449e-6
0.504, 2.390e-6
0.508, 2.460e-6
0.512, 2.590e-6
0.516, 2.460e-6
0.520, 2.472e-6
0.524, 2.390e-6
0.528, 2.366e-6
0.532, 2.472e-6
0.536, 2.555e-6
0.540, 2.613e-6
0.544, 2.719e-6
0.548, 2.637e-6
0.552, 2.507e-6
0.556, 2.672e-6
0.560, 2.613e-6
0.564, 2.590e-6
0.568, 2.755e-6
0.572, 2.814e-6
0.576, 2.955e-6
0.580, 2.896e-6
0.584, 3.014e-6
0.588, 3.002e-6
0.592, 3.096e-6
0.596, 3.249e-6
0.600, 3.543e-6
0.604, 3.614e-6
0.608, 4.002e-6
0.612, 4.320e-6
0.616, 4.685e-6
0.620, 5.109e-6
0.624, 6.027e-6
0.628, 6.945e-6
0.632, 7.934e-6
0.636, 9.629e-6
0.640, 1.122e-5
0.644, 1.309e-5
0.648, 1.563e-5
0.652, 1.840e-5
0.656, 2.172e-5
0.660, 2.587e-5
0.664, 3.048e-5
0.668, 3.522e-5
0.672, 3.982e-5
0.676, 4.384e-5
0.680, 4.745e-5
0.684, 5.009e-5
0.688, 5.147e-5
0.692, 5.193e-5
0.696, 5.199e-5
0.700, 5.195e-5
0.704, 5.182e-5
0.708, 5.190e-5
0.712, 5.228e-5
0.716, 5.263e-5
0.720, 5.320e-5
0.724, 5.372e-5
0.728, 5.441e-5
0.732, 5.523e-5
0.736, 5.600e-5
0.740, 5.671e-5
0.744, 5.732e-5
0.748, 5.812e-5
0.752, 5.874e-5
0.756, 5.927e-5
0.760, 5.990e-5
0.764, 6.059e-5
0.768, 6.114e-5
0.772, 6.148e-5
0.776, 6.232e-5
0.780, 6.270e-5
0.784, 6.318e-5
0.788, 6.330e-5
0.792, 6.380e-5
0.796, 6.383e-5
0.800, 6.413e-5
0.804, 6.396e-5
0.808, 6.400e-5
0.812, 6.364e-5
0.816, 6.333e-5
0.820, 6.294e-5
0.824, 6.216e-5
0.828, 6.166e-5
0.832, 6.088e-5
0.836, 5.987e-5
0.840, 5.897e-5
0.844, 5.801e-5
0.848, 5.656e-5
0.852, 5.550e-5
0.856, 5.396e-5
0.860, 5.249e-5
0.864, 5.101e-5
0.868, 4.938e-5
0.872, 4.766e-5
0.876, 4.599e-5
0.880, 4.433e-5
0.884, 4.252e-5
0.888, 4.067e-5
0.892, 3.926e-5
0.896, 3.752e-5
0.900, 3.589e-5
0.904, 3.453e-5
0.908, 3.291e-5
0.912, 3.157e-5
0.916, 3.016e-5
0.920, 2.909e-5
0.924, 2.788e-5
0.928, 2.688e-5
0.932, 2.562e-5
0.936, 2.480e-5
0.940, 2.406e-5
0.944, 2.306e-5
0.948, 2.241e-5
0.952, 2.160e-5
0.956, 2.102e-5
0.960, 2.034e-5
0.964, 1.992e-5
0.968, 1.916e-5
0.972, 1.881e-5
0.976, 1.831e-5
0.980, 1.811e-5
0.984, 1.772e-5
0.988, 1.747e-5
0.992, 1.715e-5
0.996, 1.679e-5
1.000, 1.668e-5
