July 25, 2025   11:57:17
Differential Pulse Voltammetry
File: e:\Data Source:  Experiment
Instrument Model:  CHI620E
Header: 
Note: 

Init E (V) = 0
Final E (V) = 1
Incr E (V) = 0.004
Amplitude (V) = 0.05
Pulse Width (sec) = 0.05
Sample Width (sec) = 0.0167
Pulse Period (sec) = 0.5
Quiet Time (sec) = 2
Sensitivity (A/V) = 0.01

Results:

Channel 1:
Ep = 0.580V
ip = 1.822e-5A
Ap = 2.006e-6VA

Potential/V, Current/A

0.004, 1.544e-5
0.008, 1.415e-5
0.012, 1.321e-5
0.016, 1.248e-5
0.020, 1.191e-5
0.024, 1.157e-5
0.028, 1.129e-5
0.032, 1.118e-5
0.036, 1.035e-5
0.040, 1.032e-5
0.044, 1.031e-5
0.048, 9.618e-6
0.052, 9.665e-6
0.056, 9.335e-6
0.060, 9.229e-6
0.064, 9.064e-6
0.068, 8.676e-6
0.072, 8.711e-6
0.076, 8.546e-6
0.080, 8.217e-6
0.084, 7.840e-6
0.088, 7.781e-6
0.092, 7.864e-6
0.096, 7.746e-6
0.100, 7.381e-6
0.104, 7.193e-6
0.108, 7.098e-6
0.112, 7.028e-6
0.116, 6.804e-6
0.120, 6.486e-6
0.124, 6.686e-6
0.128, 6.322e-6
0.132, 6.369e-6
0.136, 5.910e-6
0.140, 5.933e-6
0.144, 5.756e-6
0.148, 5.933e-6
0.152, 5.392e-6
0.156, 5.498e-6
0.160, 5.603e-6
0.164, 5.509e-6
0.168, 5.368e-6
0.172, 5.380e-6
0.176, 5.368e-6
0.180, 5.074e-6
0.184, 4.968e-6
0.188, 5.003e-6
0.192, 5.015e-6
0.196, 4.709e-6
0.200, 4.968e-6
0.204, 4.968e-6
0.208, 4.885e-6
0.212, 4.568e-6
0.216, 4.685e-6
0.220, 4.532e-6
0.224, 4.485e-6
0.228, 4.379e-6
0.232, 4.214e-6
0.236, 4.403e-6
0.240, 4.356e-6
0.244, 4.273e-6
0.248, 4.261e-6
0.252, 4.332e-6
0.256, 4.309e-6
0.260, 4.226e-6
0.264, 4.167e-6
0.268, 3.873e-6
0.272, 4.050e-6
0.276, 4.132e-6
0.280, 3.920e-6
0.284, 3.897e-6
0.288, 4.073e-6
0.292, 4.132e-6
0.296, 3.991e-6
0.300, 3.861e-6
0.304, 3.908e-6
0.308, 4.002e-6
0.312, 3.732e-6
0.316, 3.814e-6
0.320, 3.932e-6
0.324, 3.849e-6
0.328, 3.767e-6
0.332, 3.861e-6
0.336, 3.673e-6
0.340, 3.508e-6
0.344, 3.696e-6
0.348, 3.838e-6
0.352, 3.732e-6
0.356, 3.426e-6
0.360, 3.626e-6
0.364, 3.779e-6
0.368, 3.555e-6
0.372, 3.873e-6
0.376, 3.602e-6
0.380, 3.579e-6
0.384, 3.590e-6
0.388, 3.567e-6
0.392, 3.579e-6
0.396, 3.473e-6
0.400, 3.767e-6
0.404, 3.755e-6
0.408, 3.638e-6
0.412, 3.920e-6
0.416, 3.732e-6
0.420, 3.543e-6
0.424, 3.708e-6
0.428, 3.967e-6
0.432, 3.967e-6
0.436, 4.309e-6
0.440, 4.144e-6
0.444, 4.356e-6
0.448, 4.662e-6
0.452, 4.768e-6
0.456, 5.297e-6
0.460, 5.898e-6
0.464, 6.015e-6
0.468, 6.816e-6
0.472, 7.463e-6
0.476, 8.594e-6
0.480, 9.394e-6
0.484, 1.076e-5
0.488, 1.230e-5
0.492, 1.403e-5
0.496, 1.622e-5
0.500, 1.811e-5
0.504, 2.025e-5
0.508, 2.238e-5
0.512, 2.425e-5
0.516, 2.575e-5
0.520, 2.721e-5
0.524, 2.868e-5
0.528, 2.951e-5
0.532, 3.035e-5
0.536, 3.060e-5
0.540, 3.113e-5
0.544, 3.173e-5
0.548, 3.147e-5
0.552, 3.206e-5
0.556, 3.238e-5
0.560, 3.297e-5
0.564, 3.368e-5
0.568, 3.424e-5
0.572, 3.547e-5
0.576, 3.614e-5
0.580, 3.655e-5
0.584, 3.612e-5
0.588, 3.514e-5
0.592, 3.415e-5
0.596, 3.348e-5
0.600, 3.251e-5
0.604, 3.203e-5
0.608, 3.133e-5
0.612, 3.110e-5
0.616, 3.058e-5
0.620, 2.999e-5
0.624, 3.002e-5
0.628, 2.936e-5
0.632, 2.905e-5
0.636, 2.894e-5
0.640, 2.831e-5
0.644, 2.785e-5
0.648, 2.798e-5
0.652, 2.756e-5
0.656, 2.762e-5
0.660, 2.733e-5
0.664, 2.737e-5
0.668, 2.709e-5
0.672, 2.745e-5
0.676, 2.711e-5
0.680, 2.706e-5
0.684, 2.724e-5
0.688, 2.723e-5
0.692, 2.712e-5
0.696, 2.704e-5
0.700, 2.712e-5
0.704, 2.721e-5
0.708, 2.690e-5
0.712, 2.676e-5
0.716, 2.677e-5
0.720, 2.652e-5
0.724, 2.609e-5
0.728, 2.597e-5
0.732, 2.569e-5
0.736, 2.510e-5
0.740, 2.451e-5
0.744, 2.425e-5
0.748, 2.363e-5
0.752, 2.285e-5
0.756, 2.258e-5
0.760, 2.175e-5
0.764, 2.145e-5
0.768, 2.048e-5
0.772, 2.021e-5
0.776, 1.975e-5
0.780, 1.922e-5
0.784, 1.855e-5
0.788, 1.792e-5
0.792, 1.767e-5
0.796, 1.695e-5
0.800, 1.686e-5
0.804, 1.626e-5
0.808, 1.580e-5
0.812, 1.557e-5
0.816, 1.514e-5
0.820, 1.471e-5
0.824, 1.460e-5
0.828, 1.457e-5
0.832, 1.383e-5
0.836, 1.381e-5
0.840, 1.364e-5
0.844, 1.356e-5
0.848, 1.323e-5
0.852, 1.304e-5
0.856, 1.291e-5
0.860, 1.295e-5
0.864, 1.273e-5
0.868, 1.260e-5
0.872, 1.267e-5
0.876, 1.271e-5
0.880, 1.265e-5
0.884, 1.267e-5
0.888, 1.250e-5
0.892, 1.271e-5
0.896, 1.295e-5
0.900, 1.281e-5
0.904, 1.268e-5
0.908, 1.297e-5
0.912, 1.317e-5
0.916, 1.320e-5
0.920, 1.318e-5
0.924, 1.340e-5
0.928, 1.328e-5
0.932, 1.350e-5
0.936, 1.356e-5
0.940, 1.362e-5
0.944, 1.375e-5
0.948, 1.376e-5
0.952, 1.377e-5
0.956, 1.407e-5
0.960, 1.403e-5
0.964, 1.380e-5
0.968, 1.434e-5
0.972, 1.424e-5
0.976, 1.415e-5
0.980, 1.416e-5
0.984, 1.407e-5
0.988, 1.402e-5
0.992, 1.431e-5
0.996, 1.413e-5
1.000, 1.430e-5
