July 24, 2025   16:47:30
Differential Pulse Voltammetry
File: e:\Data Source:  Experiment
Instrument Model:  CHI620E
Header: 
Note: 

Init E (V) = 0
Final E (V) = 1
Incr E (V) = 0.004
Amplitude (V) = 0.05
Pulse Width (sec) = 0.05
Sample Width (sec) = 0.0167
Pulse Period (sec) = 0.5
Quiet Time (sec) = 2
Sensitivity (A/V) = 0.01

Results:

Channel 1:
Ep = 0.644V
ip = 8.325e-6A
Ap = 8.764e-7VA

Potential/V, Current/A

0.004, 3.849e-6
0.008, 3.508e-6
0.012, 3.284e-6
0.016, 3.084e-6
0.020, 2.660e-6
0.024, 2.802e-6
0.028, 2.896e-6
0.032, 2.731e-6
0.036, 2.472e-6
0.040, 2.602e-6
0.044, 2.519e-6
0.048, 2.272e-6
0.052, 2.672e-6
0.056, 2.048e-6
0.060, 2.225e-6
0.064, 2.072e-6
0.068, 2.260e-6
0.072, 2.084e-6
0.076, 2.213e-6
0.080, 1.978e-6
0.084, 2.213e-6
0.088, 2.060e-6
0.092, 1.848e-6
0.096, 2.131e-6
0.100, 1.801e-6
0.104, 1.495e-6
0.108, 2.060e-6
0.112, 1.695e-6
0.116, 1.778e-6
0.120, 1.542e-6
0.124, 1.778e-6
0.128, 1.424e-6
0.132, 1.483e-6
0.136, 1.389e-6
0.140, 1.636e-6
0.144, 1.589e-6
0.148, 1.636e-6
0.152, 1.448e-6
0.156, 1.589e-6
0.160, 1.601e-6
0.164, 1.519e-6
0.168, 1.354e-6
0.172, 1.519e-6
0.176, 1.260e-6
0.180, 1.366e-6
0.184, 1.283e-6
0.188, 1.248e-6
0.192, 1.683e-6
0.196, 1.283e-6
0.200, 1.295e-6
0.204, 1.318e-6
0.208, 1.377e-6
0.212, 1.330e-6
0.216, 1.554e-6
0.220, 1.048e-6
0.224, 1.660e-6
0.228, 1.436e-6
0.232, 1.448e-6
0.236, 1.483e-6
0.240, 1.177e-6
0.244, 1.260e-6
0.248, 1.342e-6
0.252, 1.213e-6
0.256, 1.495e-6
0.260, 8.005e-7
0.264, 1.154e-6
0.268, 1.413e-6
0.272, 1.213e-6
0.276, 1.542e-6
0.280, 1.389e-6
0.284, 1.236e-6
0.288, 1.377e-6
0.292, 1.118e-6
0.296, 9.535e-7
0.300, 1.389e-6
0.304, 1.024e-6
0.308, 1.224e-6
0.312, 1.248e-6
0.316, 1.271e-6
0.320, 1.260e-6
0.324, 8.123e-7
0.328, 1.118e-6
0.332, 1.260e-6
0.336, 1.107e-6
0.340, 1.012e-6
0.344, 1.024e-6
0.348, 1.224e-6
0.352, 9.653e-7
0.356, 1.083e-6
0.360, 1.213e-6
0.364, 1.201e-6
0.368, 1.083e-6
0.372, 1.318e-6
0.376, 1.189e-6
0.380, 1.295e-6
0.384, 1.307e-6
0.388, 1.330e-6
0.392, 1.330e-6
0.396, 8.711e-7
0.400, 1.048e-6
0.404, 8.594e-7
0.408, 1.071e-6
0.412, 1.036e-6
0.416, 9.771e-7
0.420, 1.154e-6
0.424, 1.107e-6
0.428, 1.213e-6
0.432, 1.154e-6
0.436, 1.059e-6
0.440, 1.224e-6
0.444, 1.059e-6
0.448, 9.535e-7
0.452, 7.063e-7
0.456, 1.142e-6
0.460, 1.154e-6
0.464, 1.036e-6
0.468, 1.071e-6
0.472, 9.300e-7
0.476, 1.071e-6
0.480, 1.095e-6
0.484, 1.083e-6
0.488, 1.224e-6
0.492, 1.107e-6
0.496, 1.236e-6
0.500, 1.024e-6
0.504, 1.107e-6
0.508, 1.083e-6
0.512, 1.001e-6
0.516, 9.418e-7
0.520, 1.213e-6
0.524, 1.283e-6
0.528, 1.377e-6
0.532, 1.095e-6
0.536, 1.330e-6
0.540, 1.436e-6
0.544, 1.213e-6
0.548, 1.471e-6
0.552, 1.436e-6
0.556, 1.577e-6
0.560, 1.648e-6
0.564, 1.695e-6
0.568, 1.778e-6
0.572, 1.895e-6
0.576, 1.895e-6
0.580, 2.260e-6
0.584, 2.484e-6
0.588, 2.813e-6
0.592, 3.402e-6
0.596, 3.696e-6
0.600, 3.908e-6
0.604, 4.297e-6
0.608, 4.756e-6
0.612, 5.344e-6
0.616, 5.851e-6
0.620, 6.722e-6
0.624, 7.240e-6
0.628, 8.346e-6
0.632, 9.453e-6
0.636, 1.031e-5
0.640, 1.089e-5
0.644, 1.097e-5
0.648, 1.088e-5
0.652, 1.070e-5
0.656, 1.019e-5
0.660, 9.747e-6
0.664, 9.582e-6
0.668, 9.370e-6
0.672, 8.958e-6
0.676, 8.841e-6
0.680, 8.323e-6
0.684, 8.311e-6
0.688, 8.205e-6
0.692, 7.828e-6
0.696, 7.805e-6
0.700, 7.569e-6
0.704, 7.452e-6
0.708, 7.169e-6
0.712, 7.440e-6
0.716, 7.122e-6
0.720, 7.169e-6
0.724, 6.769e-6
0.728, 6.686e-6
0.732, 6.781e-6
0.736, 6.757e-6
0.740, 6.380e-6
0.744, 6.463e-6
0.748, 6.298e-6
0.752, 6.510e-6
0.756, 6.357e-6
0.760, 5.921e-6
0.764, 5.839e-6
0.768, 6.192e-6
0.772, 5.827e-6
0.776, 6.274e-6
0.780, 5.792e-6
0.784, 6.004e-6
0.788, 6.110e-6
0.792, 5.745e-6
0.796, 5.721e-6
0.800, 5.509e-6
0.804, 5.756e-6
0.808, 5.486e-6
0.812, 5.639e-6
0.816, 5.521e-6
0.820, 5.486e-6
0.824, 5.274e-6
0.828, 5.250e-6
0.832, 5.097e-6
0.836, 5.333e-6
0.840, 5.180e-6
0.844, 4.991e-6
0.848, 5.250e-6
0.852, 5.038e-6
0.856, 5.144e-6
0.860, 4.874e-6
0.864, 4.956e-6
0.868, 5.356e-6
0.872, 5.403e-6
0.876, 5.121e-6
0.880, 5.356e-6
0.884, 5.144e-6
0.888, 5.015e-6
0.892, 5.168e-6
0.896, 5.203e-6
0.900, 4.944e-6
0.904, 4.980e-6
0.908, 5.250e-6
0.912, 5.085e-6
0.916, 5.085e-6
0.920, 5.085e-6
0.924, 5.121e-6
0.928, 5.050e-6
0.932, 5.085e-6
0.936, 5.074e-6
0.940, 5.156e-6
0.944, 5.121e-6
0.948, 5.121e-6
0.952, 4.932e-6
0.956, 5.144e-6
0.960, 5.203e-6
0.964, 5.038e-6
0.968, 5.085e-6
0.972, 5.156e-6
0.976, 4.991e-6
0.980, 5.144e-6
0.984, 5.168e-6
0.988, 5.133e-6
0.992, 5.003e-6
0.996, 5.062e-6
1.000, 5.144e-6
