July 23, 2025   19:40:56
Differential Pulse Voltammetry
File: e:\Data Source:  Experiment
Instrument Model:  CHI620E
Header: 
Note: 

Init E (V) = 0
Final E (V) = 1
Incr E (V) = 0.004
Amplitude (V) = 0.05
Pulse Width (sec) = 0.05
Sample Width (sec) = 0.0167
Pulse Period (sec) = 0.5
Quiet Time (sec) = 2
Sensitivity (A/V) = 0.01

Results:

Channel 1:
Ep = 0.536V
ip = 4.027e-5A
Ap = 4.335e-6VA

Potential/V, Current/A

0.004, 1.778e-6
0.008, 1.907e-6
0.012, 1.919e-6
0.016, 1.860e-6
0.020, 1.789e-6
0.024, 1.801e-6
0.028, 1.872e-6
0.032, 1.813e-6
0.036, 1.778e-6
0.040, 1.813e-6
0.044, 1.719e-6
0.048, 1.872e-6
0.052, 1.895e-6
0.056, 1.884e-6
0.060, 1.730e-6
0.064, 1.989e-6
0.068, 1.754e-6
0.072, 1.872e-6
0.076, 1.989e-6
0.080, 2.037e-6
0.084, 1.942e-6
0.088, 1.931e-6
0.092, 2.013e-6
0.096, 2.095e-6
0.100, 1.919e-6
0.104, 1.978e-6
0.108, 2.095e-6
0.112, 1.978e-6
0.116, 2.072e-6
0.120, 1.989e-6
0.124, 1.989e-6
0.128, 2.107e-6
0.132, 1.895e-6
0.136, 1.907e-6
0.140, 1.954e-6
0.144, 1.813e-6
0.148, 1.978e-6
0.152, 1.801e-6
0.156, 1.895e-6
0.160, 1.942e-6
0.164, 1.989e-6
0.168, 1.907e-6
0.172, 1.813e-6
0.176, 1.825e-6
0.180, 1.848e-6
0.184, 1.789e-6
0.188, 1.836e-6
0.192, 1.836e-6
0.196, 1.789e-6
0.200, 1.825e-6
0.204, 1.895e-6
0.208, 1.730e-6
0.212, 1.636e-6
0.216, 1.613e-6
0.220, 1.789e-6
0.224, 1.589e-6
0.228, 1.636e-6
0.232, 1.636e-6
0.236, 1.672e-6
0.240, 1.672e-6
0.244, 1.613e-6
0.248, 1.566e-6
0.252, 1.636e-6
0.256, 1.589e-6
0.260, 1.542e-6
0.264, 1.566e-6
0.268, 1.495e-6
0.272, 1.566e-6
0.276, 1.601e-6
0.280, 1.495e-6
0.284, 1.460e-6
0.288, 1.577e-6
0.292, 1.507e-6
0.296, 1.342e-6
0.300, 1.636e-6
0.304, 1.507e-6
0.308, 1.471e-6
0.312, 1.471e-6
0.316, 1.436e-6
0.320, 1.460e-6
0.324, 1.460e-6
0.328, 1.542e-6
0.332, 1.589e-6
0.336, 1.577e-6
0.340, 1.471e-6
0.344, 1.424e-6
0.348, 1.566e-6
0.352, 1.577e-6
0.356, 1.519e-6
0.360, 1.601e-6
0.364, 1.742e-6
0.368, 1.577e-6
0.372, 1.577e-6
0.376, 1.625e-6
0.380, 1.754e-6
0.384, 1.789e-6
0.388, 1.577e-6
0.392, 1.683e-6
0.396, 1.625e-6
0.400, 1.789e-6
0.404, 1.778e-6
0.408, 1.719e-6
0.412, 1.778e-6
0.416, 1.695e-6
0.420, 1.778e-6
0.424, 1.719e-6
0.428, 1.778e-6
0.432, 1.860e-6
0.436, 1.707e-6
0.440, 1.625e-6
0.444, 1.836e-6
0.448, 1.813e-6
0.452, 1.778e-6
0.456, 1.836e-6
0.460, 1.884e-6
0.464, 1.895e-6
0.468, 2.001e-6
0.472, 2.131e-6
0.476, 2.213e-6
0.480, 2.378e-6
0.484, 2.825e-6
0.488, 3.237e-6
0.492, 3.944e-6
0.496, 4.921e-6
0.500, 6.180e-6
0.504, 7.887e-6
0.508, 1.041e-5
0.512, 1.404e-5
0.516, 1.920e-5
0.520, 2.566e-5
0.524, 3.201e-5
0.528, 3.826e-5
0.532, 4.317e-5
0.536, 4.550e-5
0.540, 4.391e-5
0.544, 4.106e-5
0.548, 3.933e-5
0.552, 3.859e-5
0.556, 3.821e-5
0.560, 3.775e-5
0.564, 3.734e-5
0.568, 3.654e-5
0.572, 3.593e-5
0.576, 3.512e-5
0.580, 3.397e-5
0.584, 3.300e-5
0.588, 3.208e-5
0.592, 3.116e-5
0.596, 3.015e-5
0.600, 2.934e-5
0.604, 2.846e-5
0.608, 2.775e-5
0.612, 2.699e-5
0.616, 2.637e-5
0.620, 2.577e-5
0.624, 2.494e-5
0.628, 2.443e-5
0.632, 2.397e-5
0.636, 2.366e-5
0.640, 2.324e-5
0.644, 2.279e-5
0.648, 2.250e-5
0.652, 2.219e-5
0.656, 2.181e-5
0.660, 2.145e-5
0.664, 2.101e-5
0.668, 2.099e-5
0.672, 2.055e-5
0.676, 2.009e-5
0.680, 1.999e-5
0.684, 1.966e-5
0.688, 1.935e-5
0.692, 1.904e-5
0.696, 1.858e-5
0.700, 1.846e-5
0.704, 1.807e-5
0.708, 1.780e-5
0.712, 1.758e-5
0.716, 1.719e-5
0.720, 1.693e-5
0.724, 1.659e-5
0.728, 1.621e-5
0.732, 1.601e-5
0.736, 1.570e-5
0.740, 1.544e-5
0.744, 1.520e-5
0.748, 1.497e-5
0.752, 1.469e-5
0.756, 1.439e-5
0.760, 1.420e-5
0.764, 1.408e-5
0.768, 1.383e-5
0.772, 1.351e-5
0.776, 1.362e-5
0.780, 1.328e-5
0.784, 1.314e-5
0.788, 1.300e-5
0.792, 1.278e-5
0.796, 1.264e-5
0.800, 1.249e-5
0.804, 1.235e-5
0.808, 1.233e-5
0.812, 1.220e-5
0.816, 1.197e-5
0.820, 1.194e-5
0.824, 1.156e-5
0.828, 1.152e-5
0.832, 1.154e-5
0.836, 1.124e-5
0.840, 1.129e-5
0.844, 1.110e-5
0.848, 1.110e-5
0.852, 1.114e-5
0.856, 1.096e-5
0.860, 1.082e-5
0.864, 1.092e-5
0.868, 1.068e-5
0.872, 1.068e-5
0.876, 1.074e-5
0.880, 1.079e-5
0.884, 1.072e-5
0.888, 1.072e-5
0.892, 1.076e-5
0.896, 1.059e-5
0.900, 1.052e-5
0.904, 1.062e-5
0.908, 1.061e-5
0.912, 1.072e-5
0.916, 1.069e-5
0.920, 1.059e-5
0.924, 1.078e-5
0.928, 1.076e-5
0.932, 1.064e-5
0.936, 1.069e-5
0.940, 1.074e-5
0.944, 1.065e-5
0.948, 1.068e-5
0.952, 1.062e-5
0.956, 1.076e-5
0.960, 1.081e-5
0.964, 1.069e-5
0.968, 1.078e-5
0.972, 1.075e-5
0.976, 1.065e-5
0.980, 1.087e-5
0.984, 1.078e-5
0.988, 1.081e-5
0.992, 1.076e-5
0.996, 1.072e-5
1.000, 1.079e-5
