July 25, 2025   09:02:50
Differential Pulse Voltammetry
File: e:\Data Source:  Experiment
Instrument Model:  CHI620E
Header: 
Note: 

Init E (V) = 0
Final E (V) = 1
Incr E (V) = 0.004
Amplitude (V) = 0.05
Pulse Width (sec) = 0.05
Sample Width (sec) = 0.0167
Pulse Period (sec) = 0.5
Quiet Time (sec) = 2
Sensitivity (A/V) = 0.01

Results:

Channel 1:
Ep = 0.400V
ip = 1.663e-7A
Ap = 1.068e-8VA

Ep = 0.672V
ip = 9.810e-6A
Ap = 1.088e-6VA

Potential/V, Current/A

0.004, 2.790e-6
0.008, 2.484e-6
0.012, 2.272e-6
0.016, 2.237e-6
0.020, 2.095e-6
0.024, 1.954e-6
0.028, 1.860e-6
0.032, 1.778e-6
0.036, 1.554e-6
0.040, 1.660e-6
0.044, 1.660e-6
0.048, 1.471e-6
0.052, 1.401e-6
0.056, 1.401e-6
0.060, 1.389e-6
0.064, 1.248e-6
0.068, 1.283e-6
0.072, 1.295e-6
0.076, 1.236e-6
0.080, 1.213e-6
0.084, 1.095e-6
0.088, 1.201e-6
0.092, 1.177e-6
0.096, 1.001e-6
0.100, 1.024e-6
0.104, 9.300e-7
0.108, 1.036e-6
0.112, 1.024e-6
0.116, 9.064e-7
0.120, 9.182e-7
0.124, 9.535e-7
0.128, 8.947e-7
0.132, 8.005e-7
0.136, 8.947e-7
0.140, 8.711e-7
0.144, 9.535e-7
0.148, 9.300e-7
0.152, 8.005e-7
0.156, 8.240e-7
0.160, 9.418e-7
0.164, 8.829e-7
0.168, 8.005e-7
0.172, 7.652e-7
0.176, 8.358e-7
0.180, 8.005e-7
0.184, 6.710e-7
0.188, 7.534e-7
0.192, 6.828e-7
0.196, 8.358e-7
0.200, 6.828e-7
0.204, 7.770e-7
0.208, 7.416e-7
0.212, 8.240e-7
0.216, 6.592e-7
0.220, 7.416e-7
0.224, 8.947e-7
0.228, 6.592e-7
0.232, 8.123e-7
0.236, 7.299e-7
0.240, 7.416e-7
0.244, 7.534e-7
0.248, 6.121e-7
0.252, 7.887e-7
0.256, 6.710e-7
0.260, 4.709e-7
0.264, 6.828e-7
0.268, 6.121e-7
0.272, 5.768e-7
0.276, 7.181e-7
0.280, 6.121e-7
0.284, 6.592e-7
0.288, 6.475e-7
0.292, 6.828e-7
0.296, 6.357e-7
0.300, 6.828e-7
0.304, 7.534e-7
0.308, 6.592e-7
0.312, 5.886e-7
0.316, 7.181e-7
0.320, 6.710e-7
0.324, 6.121e-7
0.328, 6.592e-7
0.332, 6.945e-7
0.336, 6.475e-7
0.340, 5.768e-7
0.344, 4.591e-7
0.348, 7.299e-7
0.352, 7.063e-7
0.356, 6.828e-7
0.360, 6.710e-7
0.364, 7.063e-7
0.368, 6.828e-7
0.372, 6.828e-7
0.376, 6.475e-7
0.380, 7.299e-7
0.384, 6.592e-7
0.388, 6.710e-7
0.392, 6.828e-7
0.396, 6.592e-7
0.400, 8.005e-7
0.404, 7.652e-7
0.408, 6.828e-7
0.412, 7.181e-7
0.416, 6.592e-7
0.420, 6.357e-7
0.424, 6.475e-7
0.428, 8.005e-7
0.432, 6.121e-7
0.436, 7.181e-7
0.440, 6.121e-7
0.444, 6.357e-7
0.448, 6.592e-7
0.452, 6.004e-7
0.456, 6.592e-7
0.460, 5.651e-7
0.464, 6.945e-7
0.468, 6.592e-7
0.472, 5.651e-7
0.476, 6.828e-7
0.480, 7.181e-7
0.484, 6.828e-7
0.488, 6.004e-7
0.492, 7.770e-7
0.496, 8.005e-7
0.500, 6.945e-7
0.504, 6.239e-7
0.508, 8.240e-7
0.512, 7.063e-7
0.516, 7.181e-7
0.520, 8.358e-7
0.524, 6.710e-7
0.528, 7.181e-7
0.532, 8.123e-7
0.536, 7.181e-7
0.540, 8.240e-7
0.544, 9.418e-7
0.548, 9.418e-7
0.552, 8.594e-7
0.556, 9.182e-7
0.560, 1.059e-6
0.564, 1.095e-6
0.568, 1.001e-6
0.572, 1.142e-6
0.576, 1.142e-6
0.580, 1.142e-6
0.584, 1.342e-6
0.588, 1.542e-6
0.592, 1.636e-6
0.596, 1.742e-6
0.600, 1.801e-6
0.604, 1.907e-6
0.608, 2.237e-6
0.612, 2.296e-6
0.616, 2.484e-6
0.620, 2.813e-6
0.624, 3.131e-6
0.628, 3.402e-6
0.632, 3.932e-6
0.636, 4.532e-6
0.640, 5.250e-6
0.644, 5.980e-6
0.648, 7.122e-6
0.652, 8.229e-6
0.656, 9.418e-6
0.660, 1.041e-5
0.664, 1.114e-5
0.668, 1.168e-5
0.672, 1.200e-5
0.676, 1.180e-5
0.680, 1.184e-5
0.684, 1.152e-5
0.688, 1.101e-5
0.692, 1.062e-5
0.696, 1.022e-5
0.700, 1.004e-5
0.704, 9.429e-6
0.708, 9.229e-6
0.712, 8.970e-6
0.716, 8.794e-6
0.720, 8.429e-6
0.724, 8.193e-6
0.728, 7.899e-6
0.732, 7.793e-6
0.736, 7.699e-6
0.740, 7.416e-6
0.744, 7.287e-6
0.748, 7.216e-6
0.752, 6.863e-6
0.756, 6.887e-6
0.760, 6.698e-6
0.764, 6.545e-6
0.768, 6.510e-6
0.772, 6.239e-6
0.776, 6.427e-6
0.780, 6.310e-6
0.784, 6.263e-6
0.788, 6.086e-6
0.792, 5.957e-6
0.796, 5.933e-6
0.800, 5.980e-6
0.804, 5.733e-6
0.808, 5.745e-6
0.812, 5.592e-6
0.816, 5.545e-6
0.820, 5.592e-6
0.824, 5.309e-6
0.828, 5.344e-6
0.832, 5.168e-6
0.836, 5.203e-6
0.840, 5.180e-6
0.844, 4.980e-6
0.848, 4.980e-6
0.852, 4.956e-6
0.856, 4.803e-6
0.860, 4.956e-6
0.864, 4.815e-6
0.868, 4.862e-6
0.872, 4.685e-6
0.876, 4.709e-6
0.880, 4.721e-6
0.884, 4.673e-6
0.888, 4.391e-6
0.892, 4.520e-6
0.896, 4.509e-6
0.900, 4.344e-6
0.904, 4.367e-6
0.908, 4.379e-6
0.912, 4.261e-6
0.916, 4.238e-6
0.920, 4.238e-6
0.924, 4.226e-6
0.928, 4.061e-6
0.932, 4.132e-6
0.936, 4.120e-6
0.940, 4.156e-6
0.944, 4.097e-6
0.948, 3.955e-6
0.952, 3.920e-6
0.956, 3.944e-6
0.960, 4.038e-6
0.964, 3.979e-6
0.968, 3.849e-6
0.972, 3.920e-6
0.976, 3.991e-6
0.980, 3.991e-6
0.984, 3.873e-6
0.988, 3.755e-6
0.992, 3.779e-6
0.996, 4.014e-6
1.000, 3.849e-6
