July 24, 2025   11:11:43
Differential Pulse Voltammetry
File: e:\Data Source:  Experiment
Instrument Model:  CHI620E
Header: 
Note: 

Init E (V) = 0
Final E (V) = 1
Incr E (V) = 0.004
Amplitude (V) = 0.05
Pulse Width (sec) = 0.05
Sample Width (sec) = 0.0167
Pulse Period (sec) = 0.5
Quiet Time (sec) = 2
Sensitivity (A/V) = 0.01

Results:

Channel 1:
Ep = 0.536V
ip = 3.561e-5A
Ap = 6.388e-6VA

Potential/V, Current/A

0.004, 9.629e-6
0.008, 8.970e-6
0.012, 8.429e-6
0.016, 8.099e-6
0.020, 7.840e-6
0.024, 7.581e-6
0.028, 7.475e-6
0.032, 6.981e-6
0.036, 6.769e-6
0.040, 6.451e-6
0.044, 6.369e-6
0.048, 6.121e-6
0.052, 5.980e-6
0.056, 5.698e-6
0.060, 5.639e-6
0.064, 5.498e-6
0.068, 5.227e-6
0.072, 5.203e-6
0.076, 5.038e-6
0.080, 4.838e-6
0.084, 4.721e-6
0.088, 4.662e-6
0.092, 4.556e-6
0.096, 4.367e-6
0.100, 4.356e-6
0.104, 4.156e-6
0.108, 4.073e-6
0.112, 3.979e-6
0.116, 3.979e-6
0.120, 3.814e-6
0.124, 3.814e-6
0.128, 3.602e-6
0.132, 3.567e-6
0.136, 3.426e-6
0.140, 3.355e-6
0.144, 3.402e-6
0.148, 3.296e-6
0.152, 3.355e-6
0.156, 3.237e-6
0.160, 3.096e-6
0.164, 3.072e-6
0.168, 2.967e-6
0.172, 2.967e-6
0.176, 3.167e-6
0.180, 3.014e-6
0.184, 2.825e-6
0.188, 2.884e-6
0.192, 2.837e-6
0.196, 2.696e-6
0.200, 2.802e-6
0.204, 2.802e-6
0.208, 2.825e-6
0.212, 2.672e-6
0.216, 2.602e-6
0.220, 2.543e-6
0.224, 2.625e-6
0.228, 2.472e-6
0.232, 2.484e-6
0.236, 2.390e-6
0.240, 2.307e-6
0.244, 2.319e-6
0.248, 2.425e-6
0.252, 2.472e-6
0.256, 2.413e-6
0.260, 2.284e-6
0.264, 2.331e-6
0.268, 2.142e-6
0.272, 2.190e-6
0.276, 2.190e-6
0.280, 2.072e-6
0.284, 2.154e-6
0.288, 2.095e-6
0.292, 2.178e-6
0.296, 2.142e-6
0.300, 2.060e-6
0.304, 2.037e-6
0.308, 2.048e-6
0.312, 1.978e-6
0.316, 2.072e-6
0.320, 2.013e-6
0.324, 2.060e-6
0.328, 1.801e-6
0.332, 1.778e-6
0.336, 1.907e-6
0.340, 1.966e-6
0.344, 1.919e-6
0.348, 1.919e-6
0.352, 1.942e-6
0.356, 1.778e-6
0.360, 1.884e-6
0.364, 1.907e-6
0.368, 1.813e-6
0.372, 1.919e-6
0.376, 1.860e-6
0.380, 1.872e-6
0.384, 2.048e-6
0.388, 1.931e-6
0.392, 1.801e-6
0.396, 1.966e-6
0.400, 1.954e-6
0.404, 2.095e-6
0.408, 2.225e-6
0.412, 2.272e-6
0.416, 2.178e-6
0.420, 2.507e-6
0.424, 2.625e-6
0.428, 2.955e-6
0.432, 3.178e-6
0.436, 3.673e-6
0.440, 3.991e-6
0.444, 4.615e-6
0.448, 5.227e-6
0.452, 6.098e-6
0.456, 7.240e-6
0.460, 8.570e-6
0.464, 1.022e-5
0.468, 1.223e-5
0.472, 1.469e-5
0.476, 1.733e-5
0.480, 2.041e-5
0.484, 2.344e-5
0.488, 2.615e-5
0.492, 2.891e-5
0.496, 3.173e-5
0.500, 3.380e-5
0.504, 3.556e-5
0.508, 3.718e-5
0.512, 3.802e-5
0.516, 3.849e-5
0.520, 3.927e-5
0.524, 4.010e-5
0.528, 4.083e-5
0.532, 4.161e-5
0.536, 4.172e-5
0.540, 4.172e-5
0.544, 4.168e-5
0.548, 4.132e-5
0.552, 4.100e-5
0.556, 4.078e-5
0.560, 4.072e-5
0.564, 4.067e-5
0.568, 4.053e-5
0.572, 4.059e-5
0.576, 4.040e-5
0.580, 4.025e-5
0.584, 4.038e-5
0.588, 3.995e-5
0.592, 3.972e-5
0.596, 3.915e-5
0.600, 3.867e-5
0.604, 3.791e-5
0.608, 3.715e-5
0.612, 3.642e-5
0.616, 3.529e-5
0.620, 3.464e-5
0.624, 3.362e-5
0.628, 3.277e-5
0.632, 3.184e-5
0.636, 3.107e-5
0.640, 3.015e-5
0.644, 2.918e-5
0.648, 2.855e-5
0.652, 2.768e-5
0.656, 2.708e-5
0.660, 2.635e-5
0.664, 2.565e-5
0.668, 2.507e-5
0.672, 2.449e-5
0.676, 2.386e-5
0.680, 2.319e-5
0.684, 2.273e-5
0.688, 2.232e-5
0.692, 2.164e-5
0.696, 2.105e-5
0.700, 2.053e-5
0.704, 2.008e-5
0.708, 1.952e-5
0.712, 1.908e-5
0.716, 1.849e-5
0.720, 1.815e-5
0.724, 1.773e-5
0.728, 1.718e-5
0.732, 1.689e-5
0.736, 1.634e-5
0.740, 1.583e-5
0.744, 1.550e-5
0.748, 1.528e-5
0.752, 1.480e-5
0.756, 1.456e-5
0.760, 1.403e-5
0.764, 1.383e-5
0.768, 1.356e-5
0.772, 1.326e-5
0.776, 1.302e-5
0.780, 1.280e-5
0.784, 1.245e-5
0.788, 1.247e-5
0.792, 1.196e-5
0.796, 1.180e-5
0.800, 1.162e-5
0.804, 1.147e-5
0.808, 1.128e-5
0.812, 1.116e-5
0.816, 1.095e-5
0.820, 1.074e-5
0.824, 1.051e-5
0.828, 1.051e-5
0.832, 1.035e-5
0.836, 1.019e-5
0.840, 1.007e-5
0.844, 9.865e-6
0.848, 9.865e-6
0.852, 9.700e-6
0.856, 9.618e-6
0.860, 9.582e-6
0.864, 9.429e-6
0.868, 9.359e-6
0.872, 9.418e-6
0.876, 9.194e-6
0.880, 9.182e-6
0.884, 9.253e-6
0.888, 9.147e-6
0.892, 8.958e-6
0.896, 9.135e-6
0.900, 8.982e-6
0.904, 9.029e-6
0.908, 9.112e-6
0.912, 9.088e-6
0.916, 9.194e-6
0.920, 9.006e-6
0.924, 9.194e-6
0.928, 9.112e-6
0.932, 9.159e-6
0.936, 9.017e-6
0.940, 9.100e-6
0.944, 9.159e-6
0.948, 9.029e-6
0.952, 9.006e-6
0.956, 9.135e-6
0.960, 8.935e-6
0.964, 8.794e-6
0.968, 8.947e-6
0.972, 9.029e-6
0.976, 8.817e-6
0.980, 8.888e-6
0.984, 8.958e-6
0.988, 8.829e-6
0.992, 8.817e-6
0.996, 8.817e-6
1.000, 8.641e-6
