July 10, 2025   19:53:35
Differential Pulse Voltammetry
File: e:\Data Source:  Experiment
Instrument Model:  CHI620E
Header: 
Note: 

Init E (V) = 0
Final E (V) = 1
Incr E (V) = 0.004
Amplitude (V) = 0.05
Pulse Width (sec) = 0.05
Sample Width (sec) = 0.0167
Pulse Period (sec) = 0.5
Quiet Time (sec) = 2
Sensitivity (A/V) = 0.01

Results:

Channel 1:

Potential/V, Current/A

0.004, 1.902e-5
0.008, 1.590e-5
0.012, 1.283e-5
0.016, 1.083e-5
0.020, 9.606e-6
0.024, 8.770e-6
0.028, 8.111e-6
0.032, 7.475e-6
0.036, 6.969e-6
0.040, 6.392e-6
0.044, 6.110e-6
0.048, 5.592e-6
0.052, 5.344e-6
0.056, 5.168e-6
0.060, 4.921e-6
0.064, 4.803e-6
0.068, 4.391e-6
0.072, 4.332e-6
0.076, 4.214e-6
0.080, 3.967e-6
0.084, 3.885e-6
0.088, 3.861e-6
0.092, 3.649e-6
0.096, 3.532e-6
0.100, 3.414e-6
0.104, 3.402e-6
0.108, 3.178e-6
0.112, 3.261e-6
0.116, 3.273e-6
0.120, 3.002e-6
0.124, 2.872e-6
0.128, 2.908e-6
0.132, 2.814e-6
0.136, 2.813e-6
0.140, 2.943e-6
0.144, 2.696e-6
0.148, 2.731e-6
0.152, 2.496e-6
0.156, 2.602e-6
0.160, 2.625e-6
0.164, 2.543e-6
0.168, 2.637e-6
0.172, 2.519e-6
0.176, 2.507e-6
0.180, 2.390e-6
0.184, 2.248e-6
0.188, 2.401e-6
0.192, 2.260e-6
0.196, 2.166e-6
0.200, 2.248e-6
0.204, 2.343e-6
0.208, 2.154e-6
0.212, 2.107e-6
0.216, 1.942e-6
0.220, 1.978e-6
0.224, 1.978e-6
0.228, 1.942e-6
0.232, 1.966e-6
0.236, 1.942e-6
0.240, 1.942e-6
0.244, 1.825e-6
0.248, 1.895e-6
0.252, 1.954e-6
0.256, 1.848e-6
0.260, 1.648e-6
0.264, 1.766e-6
0.268, 1.766e-6
0.272, 1.742e-6
0.276, 1.742e-6
0.280, 1.613e-6
0.284, 1.754e-6
0.288, 1.648e-6
0.292, 1.507e-6
0.296, 1.683e-6
0.300, 1.566e-6
0.304, 1.660e-6
0.308, 1.436e-6
0.312, 1.471e-6
0.316, 1.401e-6
0.320, 1.577e-6
0.324, 1.354e-6
0.328, 1.471e-6
0.332, 1.460e-6
0.336, 1.507e-6
0.340, 1.401e-6
0.344, 1.436e-6
0.348, 1.318e-6
0.352, 1.283e-6
0.356, 1.307e-6
0.360, 1.413e-6
0.364, 1.330e-6
0.368, 1.424e-6
0.372, 1.213e-6
0.376, 1.295e-6
0.380, 1.460e-6
0.384, 1.295e-6
0.388, 1.248e-6
0.392, 1.248e-6
0.396, 1.260e-6
0.400, 1.189e-6
0.404, 1.236e-6
0.408, 1.224e-6
0.412, 1.213e-6
0.416, 1.177e-6
0.420, 1.118e-6
0.424, 1.189e-6
0.428, 1.271e-6
0.432, 1.189e-6
0.436, 1.071e-6
0.440, 1.059e-6
0.444, 1.130e-6
0.448, 1.095e-6
0.452, 1.048e-6
0.456, 1.036e-6
0.460, 1.236e-6
0.464, 1.036e-6
0.468, 1.083e-6
0.472, 1.001e-6
0.476, 1.048e-6
0.480, 1.012e-6
0.484, 1.130e-6
0.488, 9.535e-7
0.492, 1.165e-6
0.496, 1.095e-6
0.500, 9.535e-7
0.504, 9.653e-7
0.508, 1.001e-6
0.512, 1.107e-6
0.516, 1.083e-6
0.520, 9.535e-7
0.524, 1.130e-6
0.528, 1.024e-6
0.532, 1.048e-6
0.536, 9.771e-7
0.540, 1.036e-6
0.544, 1.095e-6
0.548, 1.024e-6
0.552, 8.123e-7
0.556, 1.071e-6
0.560, 1.095e-6
0.564, 1.095e-6
0.568, 8.947e-7
0.572, 1.048e-6
0.576, 1.213e-6
0.580, 1.012e-6
0.584, 1.036e-6
0.588, 1.165e-6
0.592, 1.130e-6
0.596, 1.107e-6
0.600, 1.165e-6
0.604, 1.224e-6
0.608, 1.224e-6
0.612, 1.142e-6
0.616, 1.260e-6
0.620, 1.271e-6
0.624, 1.307e-6
0.628, 1.189e-6
0.632, 1.424e-6
0.636, 1.307e-6
0.640, 1.401e-6
0.644, 1.283e-6
0.648, 1.389e-6
0.652, 1.507e-6
0.656, 1.566e-6
0.660, 1.413e-6
0.664, 1.554e-6
0.668, 1.542e-6
0.672, 1.648e-6
0.676, 1.625e-6
0.680, 1.660e-6
0.684, 1.742e-6
0.688, 1.789e-6
0.692, 1.942e-6
0.696, 1.860e-6
0.700, 1.931e-6
0.704, 1.989e-6
0.708, 2.072e-6
0.712, 2.095e-6
0.716, 2.095e-6
0.720, 2.331e-6
0.724, 2.343e-6
0.728, 2.425e-6
0.732, 2.519e-6
0.736, 2.755e-6
0.740, 2.719e-6
0.744, 2.908e-6
0.748, 3.049e-6
0.752, 3.214e-6
0.756, 3.426e-6
0.760, 3.484e-6
0.764, 3.920e-6
0.768, 4.097e-6
0.772, 4.426e-6
0.776, 5.050e-6
0.780, 5.651e-6
0.784, 6.369e-6
0.788, 7.110e-6
0.792, 7.970e-6
0.796, 9.135e-6
0.800, 1.078e-5
0.804, 1.256e-5
0.808, 1.532e-5
0.812, 1.978e-5
0.816, 2.580e-5
0.820, 3.413e-5
0.824, 4.646e-5
0.828, 6.103e-5
0.832, 7.502e-5
0.836, 8.432e-5
0.840, 8.719e-5
0.844, 8.309e-5
0.848, 7.772e-5
0.852, 7.532e-5
0.856, 7.608e-5
0.860, 7.868e-5
0.864, 8.186e-5
0.868, 8.556e-5
0.872, 8.928e-5
0.876, 9.333e-5
0.880, 9.717e-5
0.884, 1.010e-4
0.888, 1.047e-4
0.892, 1.088e-4
0.896, 1.135e-4
0.900, 1.163e-4
0.904, 1.204e-4
0.908, 1.249e-4
0.912, 1.293e-4
0.916, 1.338e-4
0.920, 1.382e-4
0.924, 1.427e-4
0.928, 1.469e-4
0.932, 1.507e-4
0.936, 1.546e-4
0.940, 1.578e-4
0.944, 1.605e-4
0.948, 1.627e-4
0.952, 1.640e-4
0.956, 1.649e-4
0.960, 1.651e-4
0.964, 1.645e-4
0.968, 1.639e-4
0.972, 1.630e-4
0.976, 1.612e-4
0.980, 1.592e-4
0.984, 1.570e-4
0.988, 1.545e-4
0.992, 1.517e-4
0.996, 1.485e-4
1.000, 1.450e-4
