July 24, 2025   20:29:30
Differential Pulse Voltammetry
File: e:\Data Source:  Experiment
Instrument Model:  CHI620E
Header: 
Note: 

Init E (V) = 0
Final E (V) = 1
Incr E (V) = 0.004
Amplitude (V) = 0.05
Pulse Width (sec) = 0.05
Sample Width (sec) = 0.0167
Pulse Period (sec) = 0.5
Quiet Time (sec) = 2
Sensitivity (A/V) = 0.01

Results:

Channel 1:
Ep = 0.572V
ip = 9.724e-6A
Ap = 1.158e-6VA

Potential/V, Current/A

0.004, 7.463e-6
0.008, 6.875e-6
0.012, 6.322e-6
0.016, 5.768e-6
0.020, 5.227e-6
0.024, 4.932e-6
0.028, 4.673e-6
0.032, 4.544e-6
0.036, 3.814e-6
0.040, 3.861e-6
0.044, 3.567e-6
0.048, 3.296e-6
0.052, 3.072e-6
0.056, 2.919e-6
0.060, 3.061e-6
0.064, 2.978e-6
0.068, 3.002e-6
0.072, 2.602e-6
0.076, 2.743e-6
0.080, 2.672e-6
0.084, 2.472e-6
0.088, 2.566e-6
0.092, 2.378e-6
0.096, 2.084e-6
0.100, 2.025e-6
0.104, 2.237e-6
0.108, 1.978e-6
0.112, 1.989e-6
0.116, 2.272e-6
0.120, 2.001e-6
0.124, 1.978e-6
0.128, 1.954e-6
0.132, 1.754e-6
0.136, 1.801e-6
0.140, 1.872e-6
0.144, 1.766e-6
0.148, 1.589e-6
0.152, 1.931e-6
0.156, 1.778e-6
0.160, 1.942e-6
0.164, 1.695e-6
0.168, 1.789e-6
0.172, 1.401e-6
0.176, 1.589e-6
0.180, 1.660e-6
0.184, 1.495e-6
0.188, 1.460e-6
0.192, 1.448e-6
0.196, 1.436e-6
0.200, 1.460e-6
0.204, 1.577e-6
0.208, 1.436e-6
0.212, 1.507e-6
0.216, 1.413e-6
0.220, 1.683e-6
0.224, 1.519e-6
0.228, 1.389e-6
0.232, 1.318e-6
0.236, 1.248e-6
0.240, 1.201e-6
0.244, 1.495e-6
0.248, 1.236e-6
0.252, 1.330e-6
0.256, 1.248e-6
0.260, 1.271e-6
0.264, 1.342e-6
0.268, 1.318e-6
0.272, 1.283e-6
0.276, 1.213e-6
0.280, 1.224e-6
0.284, 1.177e-6
0.288, 1.177e-6
0.292, 1.307e-6
0.296, 1.318e-6
0.300, 1.330e-6
0.304, 1.307e-6
0.308, 1.389e-6
0.312, 1.283e-6
0.316, 1.236e-6
0.320, 1.236e-6
0.324, 1.401e-6
0.328, 1.213e-6
0.332, 1.330e-6
0.336, 1.213e-6
0.340, 1.236e-6
0.344, 1.401e-6
0.348, 1.307e-6
0.352, 1.012e-6
0.356, 1.295e-6
0.360, 8.005e-7
0.364, 1.224e-6
0.368, 1.660e-6
0.372, 1.295e-6
0.376, 1.118e-6
0.380, 1.330e-6
0.384, 1.189e-6
0.388, 1.130e-6
0.392, 1.213e-6
0.396, 8.711e-7
0.400, 8.829e-7
0.404, 1.271e-6
0.408, 1.224e-6
0.412, 1.177e-6
0.416, 1.095e-6
0.420, 1.189e-6
0.424, 9.535e-7
0.428, 1.589e-6
0.432, 1.236e-6
0.436, 1.613e-6
0.440, 1.436e-6
0.444, 1.636e-6
0.448, 1.283e-6
0.452, 1.448e-6
0.456, 1.083e-6
0.460, 1.789e-6
0.464, 1.389e-6
0.468, 2.084e-6
0.472, 1.754e-6
0.476, 1.919e-6
0.480, 2.331e-6
0.484, 2.237e-6
0.488, 2.460e-6
0.492, 2.366e-6
0.496, 2.790e-6
0.500, 3.084e-6
0.504, 3.226e-6
0.508, 3.649e-6
0.512, 4.108e-6
0.516, 4.638e-6
0.520, 5.156e-6
0.524, 5.886e-6
0.528, 6.581e-6
0.532, 7.440e-6
0.536, 8.417e-6
0.540, 9.182e-6
0.544, 9.888e-6
0.548, 1.064e-5
0.552, 1.136e-5
0.556, 1.180e-5
0.560, 1.210e-5
0.564, 1.241e-5
0.568, 1.245e-5
0.572, 1.278e-5
0.576, 1.262e-5
0.580, 1.251e-5
0.584, 1.248e-5
0.588, 1.216e-5
0.592, 1.198e-5
0.596, 1.198e-5
0.600, 1.154e-5
0.604, 1.135e-5
0.608, 1.111e-5
0.612, 1.058e-5
0.616, 1.052e-5
0.620, 1.023e-5
0.624, 9.830e-6
0.628, 9.465e-6
0.632, 9.382e-6
0.636, 9.029e-6
0.640, 8.853e-6
0.644, 8.558e-6
0.648, 8.511e-6
0.652, 8.276e-6
0.656, 8.017e-6
0.660, 7.899e-6
0.664, 7.746e-6
0.668, 7.522e-6
0.672, 7.652e-6
0.676, 7.369e-6
0.680, 7.087e-6
0.684, 6.545e-6
0.688, 6.416e-6
0.692, 6.898e-6
0.696, 6.545e-6
0.700, 6.463e-6
0.704, 6.427e-6
0.708, 6.322e-6
0.712, 6.322e-6
0.716, 6.322e-6
0.720, 6.145e-6
0.724, 5.839e-6
0.728, 6.581e-6
0.732, 5.533e-6
0.736, 5.933e-6
0.740, 6.133e-6
0.744, 5.757e-6
0.748, 5.698e-6
0.752, 5.839e-6
0.756, 5.698e-6
0.760, 5.521e-6
0.764, 5.862e-6
0.768, 5.709e-6
0.772, 5.615e-6
0.776, 5.874e-6
0.780, 5.615e-6
0.784, 5.286e-6
0.788, 5.498e-6
0.792, 5.392e-6
0.796, 5.309e-6
0.800, 5.462e-6
0.804, 5.250e-6
0.808, 5.580e-6
0.812, 5.203e-6
0.816, 5.309e-6
0.820, 5.144e-6
0.824, 4.909e-6
0.828, 5.015e-6
0.832, 5.027e-6
0.836, 4.897e-6
0.840, 4.991e-6
0.844, 4.897e-6
0.848, 4.862e-6
0.852, 4.673e-6
0.856, 4.744e-6
0.860, 4.697e-6
0.864, 4.744e-6
0.868, 4.544e-6
0.872, 4.721e-6
0.876, 4.520e-6
0.880, 4.462e-6
0.884, 4.485e-6
0.888, 4.485e-6
0.892, 4.297e-6
0.896, 4.638e-6
0.900, 4.309e-6
0.904, 4.320e-6
0.908, 4.367e-6
0.912, 4.297e-6
0.916, 4.261e-6
0.920, 4.167e-6
0.924, 4.309e-6
0.928, 4.226e-6
0.932, 4.203e-6
0.936, 4.226e-6
0.940, 4.261e-6
0.944, 4.285e-6
0.948, 4.297e-6
0.952, 4.309e-6
0.956, 4.132e-6
0.960, 4.085e-6
0.964, 4.097e-6
0.968, 4.214e-6
0.972, 4.156e-6
0.976, 4.591e-6
0.980, 3.979e-6
0.984, 4.073e-6
0.988, 4.214e-6
0.992, 4.061e-6
0.996, 4.038e-6
1.000, 4.485e-6
