July 10, 2025   20:31:38
Differential Pulse Voltammetry
File: e:\Data Source:  Experiment
Instrument Model:  CHI620E
Header: 
Note: 

Init E (V) = 0
Final E (V) = 1
Incr E (V) = 0.004
Amplitude (V) = 0.05
Pulse Width (sec) = 0.05
Sample Width (sec) = 0.0167
Pulse Period (sec) = 0.5
Quiet Time (sec) = 2
Sensitivity (A/V) = 0.01

Results:

Channel 1:
Ep = 0.220V
ip = 4.479e-6A
Ap = 9.410e-7VA

Ep = 0.928V
ip = 8.214e-5A
Ap = 1.050e-5VA

Potential/V, Current/A

0.004, 1.436e-5
0.008, 1.314e-5
0.012, 1.230e-5
0.016, 1.161e-5
0.020, 1.102e-5
0.024, 1.037e-5
0.028, 1.037e-5
0.032, 9.994e-6
0.036, 9.806e-6
0.040, 9.759e-6
0.044, 9.783e-6
0.048, 9.888e-6
0.052, 9.924e-6
0.056, 9.759e-6
0.060, 9.818e-6
0.064, 9.947e-6
0.068, 9.665e-6
0.072, 9.794e-6
0.076, 9.877e-6
0.080, 9.794e-6
0.084, 9.794e-6
0.088, 9.700e-6
0.092, 9.818e-6
0.096, 9.830e-6
0.100, 9.794e-6
0.104, 9.783e-6
0.108, 9.830e-6
0.112, 9.936e-6
0.116, 1.001e-5
0.120, 9.900e-6
0.124, 1.021e-5
0.128, 1.021e-5
0.132, 1.024e-5
0.136, 1.028e-5
0.140, 1.050e-5
0.144, 1.047e-5
0.148, 1.062e-5
0.152, 1.070e-5
0.156, 1.083e-5
0.160, 1.096e-5
0.164, 1.095e-5
0.168, 1.103e-5
0.172, 1.143e-5
0.176, 1.142e-5
0.180, 1.151e-5
0.184, 1.162e-5
0.188, 1.165e-5
0.192, 1.174e-5
0.196, 1.175e-5
0.200, 1.196e-5
0.204, 1.203e-5
0.208, 1.217e-5
0.212, 1.223e-5
0.216, 1.205e-5
0.220, 1.231e-5
0.224, 1.224e-5
0.228, 1.218e-5
0.232, 1.215e-5
0.236, 1.217e-5
0.240, 1.221e-5
0.244, 1.225e-5
0.248, 1.202e-5
0.252, 1.218e-5
0.256, 1.196e-5
0.260, 1.198e-5
0.264, 1.181e-5
0.268, 1.185e-5
0.272, 1.177e-5
0.276, 1.156e-5
0.280, 1.147e-5
0.284, 1.138e-5
0.288, 1.110e-5
0.292, 1.096e-5
0.296, 1.088e-5
0.300, 1.078e-5
0.304, 1.057e-5
0.308, 1.044e-5
0.312, 1.010e-5
0.316, 1.004e-5
0.320, 9.794e-6
0.324, 9.677e-6
0.328, 9.441e-6
0.332, 9.265e-6
0.336, 9.029e-6
0.340, 8.829e-6
0.344, 8.676e-6
0.348, 8.523e-6
0.352, 8.240e-6
0.356, 8.040e-6
0.360, 7.911e-6
0.364, 7.711e-6
0.368, 7.687e-6
0.372, 7.310e-6
0.376, 7.299e-6
0.380, 7.016e-6
0.384, 7.134e-6
0.388, 6.722e-6
0.392, 6.533e-6
0.396, 6.463e-6
0.400, 6.145e-6
0.404, 6.133e-6
0.408, 5.968e-6
0.412, 5.827e-6
0.416, 5.745e-6
0.420, 5.333e-6
0.424, 5.462e-6
0.428, 5.297e-6
0.432, 5.109e-6
0.436, 4.885e-6
0.440, 4.732e-6
0.444, 4.732e-6
0.448, 4.520e-6
0.452, 4.391e-6
0.456, 4.191e-6
0.460, 4.167e-6
0.464, 4.002e-6
0.468, 3.897e-6
0.472, 3.779e-6
0.476, 3.685e-6
0.480, 3.826e-6
0.484, 3.685e-6
0.488, 3.473e-6
0.492, 3.449e-6
0.496, 3.343e-6
0.500, 3.061e-6
0.504, 2.896e-6
0.508, 3.002e-6
0.512, 2.943e-6
0.516, 2.672e-6
0.520, 2.708e-6
0.524, 2.719e-6
0.528, 2.672e-6
0.532, 2.555e-6
0.536, 2.390e-6
0.540, 2.343e-6
0.544, 2.366e-6
0.548, 2.201e-6
0.552, 2.248e-6
0.556, 2.107e-6
0.560, 2.190e-6
0.564, 2.084e-6
0.568, 1.978e-6
0.572, 2.084e-6
0.576, 2.025e-6
0.580, 1.966e-6
0.584, 2.001e-6
0.588, 1.919e-6
0.592, 1.954e-6
0.596, 1.884e-6
0.600, 1.907e-6
0.604, 1.931e-6
0.608, 1.931e-6
0.612, 2.060e-6
0.616, 1.836e-6
0.620, 1.836e-6
0.624, 1.884e-6
0.628, 1.813e-6
0.632, 1.848e-6
0.636, 2.013e-6
0.640, 2.131e-6
0.644, 1.884e-6
0.648, 2.237e-6
0.652, 2.307e-6
0.656, 2.331e-6
0.660, 2.237e-6
0.664, 2.354e-6
0.668, 2.425e-6
0.672, 2.708e-6
0.676, 2.967e-6
0.680, 3.202e-6
0.684, 3.685e-6
0.688, 4.250e-6
0.692, 4.991e-6
0.696, 5.862e-6
0.700, 6.898e-6
0.704, 7.793e-6
0.708, 8.582e-6
0.712, 9.418e-6
0.716, 9.994e-6
0.720, 1.063e-5
0.724, 1.098e-5
0.728, 1.155e-5
0.732, 1.191e-5
0.736, 1.235e-5
0.740, 1.287e-5
0.744, 1.362e-5
0.748, 1.440e-5
0.752, 1.543e-5
0.756, 1.688e-5
0.760, 1.878e-5
0.764, 2.144e-5
0.768, 2.434e-5
0.772, 2.741e-5
0.776, 3.111e-5
0.780, 3.600e-5
0.784, 4.211e-5
0.788, 4.938e-5
0.792, 5.702e-5
0.796, 6.731e-5
0.800, 7.813e-5
0.804, 8.709e-5
0.808, 9.275e-5
0.812, 9.319e-5
0.816, 9.176e-5
0.820, 9.187e-5
0.824, 9.395e-5
0.828, 9.734e-5
0.832, 1.011e-4
0.836, 1.053e-4
0.840, 1.096e-4
0.844, 1.140e-4
0.848, 1.185e-4
0.852, 1.227e-4
0.856, 1.271e-4
0.860, 1.315e-4
0.864, 1.356e-4
0.868, 1.396e-4
0.872, 1.438e-4
0.876, 1.477e-4
0.880, 1.520e-4
0.884, 1.563e-4
0.888, 1.608e-4
0.892, 1.651e-4
0.896, 1.693e-4
0.900, 1.731e-4
0.904, 1.768e-4
0.908, 1.802e-4
0.912, 1.828e-4
0.916, 1.849e-4
0.920, 1.864e-4
0.924, 1.873e-4
0.928, 1.878e-4
0.932, 1.872e-4
0.936, 1.864e-4
0.940, 1.850e-4
0.944, 1.827e-4
0.948, 1.804e-4
0.952, 1.772e-4
0.956, 1.737e-4
0.960, 1.701e-4
0.964, 1.665e-4
0.968, 1.623e-4
0.972, 1.580e-4
0.976, 1.532e-4
0.980, 1.483e-4
0.984, 1.432e-4
0.988, 1.378e-4
0.992, 1.321e-4
0.996, 1.260e-4
1.000, 1.197e-4
