July 22, 2025   16:53:59
Differential Pulse Voltammetry
File: e:\Data Source:  Experiment
Instrument Model:  CHI620E
Header: 
Note: 

Init E (V) = 0
Final E (V) = 1
Incr E (V) = 0.004
Amplitude (V) = 0.05
Pulse Width (sec) = 0.05
Sample Width (sec) = 0.0167
Pulse Period (sec) = 0.5
Quiet Time (sec) = 2
Sensitivity (A/V) = 0.01

Results:

Channel 1:
Ep = 0.656V
ip = 6.692e-5A
Ap = 3.135e-6VA

Potential/V, Current/A

0.004, 1.313e-5
0.008, 1.210e-5
0.012, 1.162e-5
0.016, 1.088e-5
0.020, 1.036e-5
0.024, 1.015e-5
0.028, 9.947e-6
0.032, 1.014e-5
0.036, 9.582e-6
0.040, 9.241e-6
0.044, 8.982e-6
0.048, 8.829e-6
0.052, 8.688e-6
0.056, 8.440e-6
0.060, 8.370e-6
0.064, 8.076e-6
0.068, 8.182e-6
0.072, 8.076e-6
0.076, 7.993e-6
0.080, 8.017e-6
0.084, 8.123e-6
0.088, 8.217e-6
0.092, 8.252e-6
0.096, 8.417e-6
0.100, 8.523e-6
0.104, 8.558e-6
0.108, 8.699e-6
0.112, 8.947e-6
0.116, 8.958e-6
0.120, 9.029e-6
0.124, 9.206e-6
0.128, 9.476e-6
0.132, 9.724e-6
0.136, 9.688e-6
0.140, 1.008e-5
0.144, 1.009e-5
0.148, 1.025e-5
0.152, 1.037e-5
0.156, 1.067e-5
0.160, 1.090e-5
0.164, 1.103e-5
0.168, 1.116e-5
0.172, 1.135e-5
0.176, 1.150e-5
0.180, 1.152e-5
0.184, 1.151e-5
0.188, 1.185e-5
0.192, 1.189e-5
0.196, 1.178e-5
0.200, 1.190e-5
0.204, 1.202e-5
0.208, 1.207e-5
0.212, 1.188e-5
0.216, 1.189e-5
0.220, 1.196e-5
0.224, 1.185e-5
0.228, 1.185e-5
0.232, 1.176e-5
0.236, 1.164e-5
0.240, 1.156e-5
0.244, 1.150e-5
0.248, 1.137e-5
0.252, 1.135e-5
0.256, 1.128e-5
0.260, 1.114e-5
0.264, 1.102e-5
0.268, 1.096e-5
0.272, 1.092e-5
0.276, 1.068e-5
0.280, 1.065e-5
0.284, 1.039e-5
0.288, 1.044e-5
0.292, 1.024e-5
0.296, 1.016e-5
0.300, 1.010e-5
0.304, 1.004e-5
0.308, 9.888e-6
0.312, 9.653e-6
0.316, 9.476e-6
0.320, 9.547e-6
0.324, 9.288e-6
0.328, 9.323e-6
0.332, 9.288e-6
0.336, 9.100e-6
0.340, 9.064e-6
0.344, 8.805e-6
0.348, 8.770e-6
0.352, 8.853e-6
0.356, 8.570e-6
0.360, 8.641e-6
0.364, 8.488e-6
0.368, 8.523e-6
0.372, 8.499e-6
0.376, 8.205e-6
0.380, 8.252e-6
0.384, 8.217e-6
0.388, 8.028e-6
0.392, 8.170e-6
0.396, 7.970e-6
0.400, 7.864e-6
0.404, 7.887e-6
0.408, 7.593e-6
0.412, 7.769e-6
0.416, 7.534e-6
0.420, 7.405e-6
0.424, 7.405e-6
0.428, 7.381e-6
0.432, 7.263e-6
0.436, 7.310e-6
0.440, 7.146e-6
0.444, 7.146e-6
0.448, 7.087e-6
0.452, 7.028e-6
0.456, 6.792e-6
0.460, 6.969e-6
0.464, 6.875e-6
0.468, 6.710e-6
0.472, 6.769e-6
0.476, 6.722e-6
0.480, 6.686e-6
0.484, 6.663e-6
0.488, 6.581e-6
0.492, 6.451e-6
0.496, 6.510e-6
0.500, 6.510e-6
0.504, 6.369e-6
0.508, 6.463e-6
0.512, 6.498e-6
0.516, 6.392e-6
0.520, 6.322e-6
0.524, 6.569e-6
0.528, 6.475e-6
0.532, 6.651e-6
0.536, 6.639e-6
0.540, 6.910e-6
0.544, 7.075e-6
0.548, 7.122e-6
0.552, 7.487e-6
0.556, 7.828e-6
0.560, 8.393e-6
0.564, 8.805e-6
0.568, 9.323e-6
0.572, 1.034e-5
0.576, 1.154e-5
0.580, 1.262e-5
0.584, 1.402e-5
0.588, 1.593e-5
0.592, 1.825e-5
0.596, 2.079e-5
0.600, 2.418e-5
0.604, 2.842e-5
0.608, 3.402e-5
0.612, 4.106e-5
0.616, 4.970e-5
0.620, 5.997e-5
0.624, 7.194e-5
0.628, 8.512e-5
0.632, 9.911e-5
0.636, 1.138e-4
0.640, 1.288e-4
0.644, 1.440e-4
0.648, 1.566e-4
0.652, 1.636e-4
0.656, 1.641e-4
0.660, 1.616e-4
0.664, 1.584e-4
0.668, 1.557e-4
0.672, 1.532e-4
0.676, 1.507e-4
0.680, 1.485e-4
0.684, 1.466e-4
0.688, 1.447e-4
0.692, 1.433e-4
0.696, 1.417e-4
0.700, 1.407e-4
0.704, 1.397e-4
0.708, 1.392e-4
0.712, 1.388e-4
0.716, 1.386e-4
0.720, 1.386e-4
0.724, 1.387e-4
0.728, 1.390e-4
0.732, 1.391e-4
0.736, 1.390e-4
0.740, 1.389e-4
0.744, 1.386e-4
0.748, 1.381e-4
0.752, 1.373e-4
0.756, 1.364e-4
0.760, 1.352e-4
0.764, 1.340e-4
0.768, 1.326e-4
0.772, 1.313e-4
0.776, 1.300e-4
0.780, 1.287e-4
0.784, 1.275e-4
0.788, 1.266e-4
0.792, 1.253e-4
0.796, 1.246e-4
0.800, 1.237e-4
0.804, 1.231e-4
0.808, 1.227e-4
0.812, 1.222e-4
0.816, 1.213e-4
0.820, 1.207e-4
0.824, 1.199e-4
0.828, 1.189e-4
0.832, 1.177e-4
0.836, 1.166e-4
0.840, 1.152e-4
0.844, 1.136e-4
0.848, 1.117e-4
0.852, 1.101e-4
0.856, 1.076e-4
0.860, 1.056e-4
0.864, 1.030e-4
0.868, 1.003e-4
0.872, 9.752e-5
0.876, 9.463e-5
0.880, 9.179e-5
0.884, 8.896e-5
0.888, 8.624e-5
0.892, 8.357e-5
0.896, 8.094e-5
0.900, 7.835e-5
0.904, 7.575e-5
0.908, 7.350e-5
0.912, 7.096e-5
0.916, 6.856e-5
0.920, 6.601e-5
0.924, 6.389e-5
0.928, 6.140e-5
0.932, 5.918e-5
0.936, 5.687e-5
0.940, 5.465e-5
0.944, 5.233e-5
0.948, 5.003e-5
0.952, 4.779e-5
0.956, 4.551e-5
0.960, 4.352e-5
0.964, 4.135e-5
0.968, 3.933e-5
0.972, 3.771e-5
0.976, 3.587e-5
0.980, 3.420e-5
0.984, 3.250e-5
0.988, 3.100e-5
0.992, 2.952e-5
0.996, 2.812e-5
1.000, 2.692e-5
