July 12, 2025   22:11:30
Differential Pulse Voltammetry
File: e:\Data Source:  Experiment
Instrument Model:  CHI620E
Header: 
Note: 

Init E (V) = 0
Final E (V) = 1
Incr E (V) = 0.004
Amplitude (V) = 0.05
Pulse Width (sec) = 0.05
Sample Width (sec) = 0.0167
Pulse Period (sec) = 0.5
Quiet Time (sec) = 2
Sensitivity (A/V) = 0.01

Results:

Channel 1:
Ep = 0.684V
ip = 1.818e-5A
Ap = 7.626e-7VA

Potential/V, Current/A

0.004, 8.276e-6
0.008, 7.664e-6
0.012, 6.804e-6
0.016, 6.451e-6
0.020, 6.039e-6
0.024, 5.721e-6
0.028, 5.545e-6
0.032, 5.380e-6
0.036, 5.180e-6
0.040, 5.003e-6
0.044, 4.991e-6
0.048, 4.932e-6
0.052, 5.062e-6
0.056, 5.015e-6
0.060, 4.897e-6
0.064, 4.768e-6
0.068, 4.603e-6
0.072, 4.685e-6
0.076, 4.697e-6
0.080, 4.579e-6
0.084, 4.391e-6
0.088, 4.403e-6
0.092, 4.450e-6
0.096, 4.238e-6
0.100, 4.191e-6
0.104, 4.250e-6
0.108, 4.179e-6
0.112, 4.038e-6
0.116, 4.097e-6
0.120, 3.955e-6
0.124, 3.885e-6
0.128, 4.014e-6
0.132, 3.814e-6
0.136, 3.897e-6
0.140, 3.767e-6
0.144, 3.732e-6
0.148, 3.743e-6
0.152, 3.767e-6
0.156, 3.673e-6
0.160, 3.661e-6
0.164, 3.520e-6
0.168, 3.532e-6
0.172, 3.532e-6
0.176, 3.437e-6
0.180, 3.320e-6
0.184, 3.237e-6
0.188, 3.190e-6
0.192, 3.096e-6
0.196, 3.072e-6
0.200, 3.143e-6
0.204, 3.037e-6
0.208, 3.096e-6
0.212, 2.896e-6
0.216, 2.825e-6
0.220, 2.790e-6
0.224, 2.672e-6
0.228, 2.566e-6
0.232, 2.660e-6
0.236, 2.484e-6
0.240, 2.401e-6
0.244, 2.378e-6
0.248, 2.343e-6
0.252, 2.425e-6
0.256, 2.248e-6
0.260, 2.166e-6
0.264, 2.190e-6
0.268, 2.166e-6
0.272, 2.060e-6
0.276, 2.142e-6
0.280, 2.084e-6
0.284, 2.025e-6
0.288, 1.848e-6
0.292, 1.848e-6
0.296, 2.013e-6
0.300, 1.966e-6
0.304, 1.884e-6
0.308, 1.789e-6
0.312, 1.825e-6
0.316, 1.813e-6
0.320, 1.836e-6
0.324, 1.707e-6
0.328, 1.801e-6
0.332, 1.695e-6
0.336, 1.778e-6
0.340, 1.778e-6
0.344, 1.636e-6
0.348, 1.742e-6
0.352, 1.648e-6
0.356, 1.401e-6
0.360, 1.695e-6
0.364, 1.707e-6
0.368, 1.589e-6
0.372, 1.483e-6
0.376, 1.554e-6
0.380, 1.625e-6
0.384, 1.636e-6
0.388, 1.448e-6
0.392, 1.566e-6
0.396, 1.577e-6
0.400, 1.566e-6
0.404, 1.519e-6
0.408, 1.401e-6
0.412, 1.542e-6
0.416, 1.530e-6
0.420, 1.295e-6
0.424, 1.389e-6
0.428, 1.389e-6
0.432, 1.495e-6
0.436, 1.448e-6
0.440, 1.224e-6
0.444, 1.389e-6
0.448, 1.507e-6
0.452, 1.260e-6
0.456, 1.389e-6
0.460, 1.366e-6
0.464, 1.448e-6
0.468, 1.366e-6
0.472, 1.366e-6
0.476, 1.354e-6
0.480, 1.342e-6
0.484, 1.542e-6
0.488, 1.354e-6
0.492, 1.330e-6
0.496, 1.436e-6
0.500, 1.424e-6
0.504, 1.224e-6
0.508, 1.283e-6
0.512, 1.366e-6
0.516, 1.354e-6
0.520, 1.295e-6
0.524, 1.260e-6
0.528, 1.260e-6
0.532, 1.330e-6
0.536, 1.424e-6
0.540, 1.401e-6
0.544, 1.271e-6
0.548, 1.354e-6
0.552, 1.377e-6
0.556, 1.295e-6
0.560, 1.354e-6
0.564, 1.389e-6
0.568, 1.295e-6
0.572, 1.424e-6
0.576, 1.401e-6
0.580, 1.542e-6
0.584, 1.577e-6
0.588, 1.577e-6
0.592, 1.719e-6
0.596, 1.789e-6
0.600, 1.813e-6
0.604, 2.107e-6
0.608, 2.343e-6
0.612, 2.802e-6
0.616, 3.202e-6
0.620, 4.038e-6
0.624, 5.191e-6
0.628, 6.993e-6
0.632, 9.323e-6
0.636, 1.265e-5
0.640, 1.673e-5
0.644, 2.135e-5
0.648, 2.677e-5
0.652, 3.241e-5
0.656, 3.847e-5
0.660, 4.393e-5
0.664, 4.842e-5
0.668, 5.222e-5
0.672, 5.498e-5
0.676, 5.700e-5
0.680, 5.787e-5
0.684, 5.800e-5
0.688, 5.724e-5
0.692, 5.585e-5
0.696, 5.414e-5
0.700, 5.276e-5
0.704, 5.153e-5
0.708, 5.084e-5
0.712, 5.065e-5
0.716, 5.074e-5
0.720, 5.108e-5
0.724, 5.191e-5
0.728, 5.262e-5
0.732, 5.408e-5
0.736, 5.538e-5
0.740, 5.667e-5
0.744, 5.855e-5
0.748, 6.020e-5
0.752, 6.192e-5
0.756, 6.378e-5
0.760, 6.573e-5
0.764, 6.763e-5
0.768, 6.958e-5
0.772, 7.153e-5
0.776, 7.367e-5
0.780, 7.565e-5
0.784, 7.759e-5
0.788, 7.935e-5
0.792, 8.079e-5
0.796, 8.212e-5
0.800, 8.315e-5
0.804, 8.348e-5
0.808, 8.366e-5
0.812, 8.330e-5
0.816, 8.231e-5
0.820, 8.091e-5
0.824, 7.894e-5
0.828, 7.698e-5
0.832, 7.456e-5
0.836, 7.216e-5
0.840, 6.976e-5
0.844, 6.723e-5
0.848, 6.444e-5
0.852, 6.185e-5
0.856, 5.902e-5
0.860, 5.643e-5
0.864, 5.396e-5
0.868, 5.149e-5
0.872, 4.905e-5
0.876, 4.673e-5
0.880, 4.459e-5
0.884, 4.258e-5
0.888, 4.058e-5
0.892, 3.859e-5
0.896, 3.685e-5
0.900, 3.499e-5
0.904, 3.330e-5
0.908, 3.181e-5
0.912, 3.035e-5
0.916, 2.905e-5
0.920, 2.771e-5
0.924, 2.653e-5
0.928, 2.544e-5
0.932, 2.437e-5
0.936, 2.325e-5
0.940, 2.259e-5
0.944, 2.158e-5
0.948, 2.080e-5
0.952, 1.988e-5
0.956, 1.944e-5
0.960, 1.866e-5
0.964, 1.807e-5
0.968, 1.756e-5
0.972, 1.708e-5
0.976, 1.656e-5
0.980, 1.612e-5
0.984, 1.570e-5
0.988, 1.533e-5
0.992, 1.496e-5
0.996, 1.451e-5
1.000, 1.426e-5
